Title=Control negativo
Comment=Rejillas de 0.5 y 1.0
Signature=ISS_Experiment_Ver_1_0
Timestamp=Wed Jul 23 15:03:58 2025
Product=Vinci 3
SoftwareVersion=RELEASE.3.2.4
BuildNumber=518
RealTimeStart=2977.667225

AcquisitionType=Photon Counting
AcquisitionFormat=L
AcquisitionSide=Right

Measurable=Intensity
MaxIterations=10

RightEmissionWavelengthBandwidth=8.0
ExcitationWavelengthBandwidth=8.0
Visualization=Y:Intensity,X:EmissionWavelength,PlotType:2D


EmissionWavelength=type:numeric,unit:nm,from:490.0,to:650.0,step:1.0
ExcitationWavelength=type:numeric,unit:nm,fixed:470.0

Space=EmissionWavelength
Columns=EmissionWavelength,Intensity,IntensityStdError,RealTime,RealTemperature
Dark=96.0, 587.2
[Data]
        490.00	     1732.8000	     44.621868	     2982.1239	     20.000000
        491.00	     1692.8000	     30.404678	     2983.6169	     20.000000
        492.00	     1612.8000	     49.531135	     2984.7669	     20.000000
        493.00	     1608.8000	     40.199502	     2985.9236	     20.000000
        494.00	     1720.8000	     40.900964	     2987.0757	     20.000000
        495.00	     1668.8000	     55.681635	     2988.2363	     20.000000
        496.00	     1716.8000	     57.255761	     2989.3927	     20.000000
        497.00	     1696.8000	     45.587523	     2990.5459	     20.000000
        498.00	     1764.8000	     46.494922	     2991.5873	     20.000000
        499.00	     1756.8000	     48.515748	     2992.7656	     20.000000
        500.00	     1812.8000	     45.018515	     2993.9084	     20.000000
        501.00	     1808.8000	     62.096699	     2995.0692	     20.000000
        502.00	     1772.8000	     57.811956	     2996.1807	     20.000000
        503.00	     1840.8000	     49.188978	     2997.3599	     20.003300
        504.00	     1892.8000	     46.188022	     2998.5437	     20.003300
        505.00	     1860.8000	     48.368952	     2999.6880	     20.003300
        506.00	     1864.8000	     59.940711	     3000.8516	     20.003300
        507.00	     1964.8000	     49.459299	     3002.0023	     20.000000
        508.00	     1892.8000	     52.998952	     3003.1609	     20.000000
        509.00	     2032.8000	     38.758512	     3004.3149	     20.000000
        510.00	     1984.8000	     39.575526	     3005.4692	     20.000000
        511.00	     1992.8000	     59.702968	     3006.6348	     20.000000
        512.00	     1964.8000	     55.232840	     3007.7807	     20.000000
        513.00	     2060.8000	     39.009970	     3008.9357	     20.000000
        514.00	     2008.8000	     50.402822	     3010.1019	     20.000000
        515.00	     2036.8000	     45.489926	     3011.2482	     20.000000
        516.00	     1968.8000	     52.476450	     3012.3983	     20.000000
        517.00	     1932.8000	     55.617743	     3013.5583	     20.000000
        518.00	     2012.8000	     32.659863	     3014.7155	     20.000000
        519.00	     1944.8000	     34.794636	     3015.8665	     20.000000
        520.00	     1900.8000	     55.872872	     3017.0343	     20.000000
        521.00	     1924.8000	     56.819402	     3018.1833	     20.000000
        522.00	     1900.8000	     41.654665	     3019.3457	     20.000000
        523.00	     1908.8000	     49.602867	     3020.4612	     20.000000
        524.00	     1892.8000	     56.253395	     3021.6556	     20.000000
        525.00	     1756.8000	     44.301994	     3022.8269	     20.000000
        526.00	     1744.8000	     45.038255	     3023.9711	     20.000000
        527.00	     1776.8000	     59.464275	     3025.1255	     20.000000
        528.00	     1740.8000	     52.931822	     3026.2800	     20.000000
        529.00	     1672.8000	     65.659052	     3027.4365	     20.000000
        530.00	     1660.8000	     66.345895	     3028.5900	     20.000000
        531.00	     1576.8000	     44.402202	     3029.7348	     20.000000
        532.00	     1528.8000	     37.452192	     3030.7695	     20.000000
        533.00	     1440.8000	     48.460752	     3031.9648	     20.000000
        534.00	     1472.8000	     36.878178	     3033.1200	     20.000000
        535.00	     1396.8000	     59.985183	     3034.2838	     20.000000
        536.00	     1300.8000	     64.992307	     3035.4307	     20.000000
        537.00	     1248.8000	     67.316830	     3036.5902	     20.000000
        538.00	     1224.8000	     40.463976	     3037.7481	     20.000000
        539.00	     1144.8000	     49.906579	     3038.9042	     20.000000
        540.00	     1060.8000	     47.253454	     3040.0527	     20.000000
        541.00	     1060.8000	     26.532998	     3041.2140	     20.000000
        542.00	     968.80000	     30.666667	     3042.3739	     20.000000
        543.00	     988.80000	     45.879068	     3043.5322	     20.000000
        544.00	     868.80000	     31.098410	     3044.6832	     20.000000
        545.00	     864.80000	     25.333333	     3045.8396	     20.000000
        546.00	     892.80000	     47.702784	     3047.0018	     20.000000
        547.00	     844.80000	     34.149996	     3048.1482	     20.000000
        548.00	     856.80000	     31.240999	     3049.3055	     20.000000
        549.00	     804.80000	     35.677568	     3050.4521	     20.003300
        550.00	     836.80000	     31.664912	     3051.6149	     20.003300
        551.00	     780.80000	     35.677568	     3052.7838	     20.003300
        552.00	     792.80000	     40.551750	     3053.9425	     20.000000
        553.00	     716.80000	     31.664912	     3055.0879	     20.000000
        554.00	     736.80000	     38.850139	     3056.2393	     20.000000
        555.00	     752.80000	     39.665266	     3057.4120	     20.000000
        556.00	     844.80000	     22.939534	     3058.5541	     20.000000
        557.00	     696.80000	     22.666667	     3059.7263	     20.000000
        558.00	     684.80000	     27.194771	     3060.8729	     20.000000
        559.00	     748.80000	     39.191836	     3062.0411	     20.000000
        560.00	     664.80000	     23.132469	     3063.1549	     20.000000
        561.00	     648.80000	     42.353014	     3064.3676	     20.000000
        562.00	     616.80000	     36.000000	     3065.5045	     20.000000
        563.00	     536.80000	     47.870195	     3066.6524	     20.000000
        564.00	     580.80000	     24.440404	     3067.8176	     20.000000
        565.00	     548.80000	     40.088790	     3068.9774	     20.003300
        566.00	     560.80000	     25.333333	     3070.1397	     20.003300
        567.00	     484.80000	     31.439536	     3071.2957	     20.003300
        568.00	     464.80000	     41.333333	     3072.4061	     20.000000
        569.00	     432.80000	     28.126697	     3073.6079	     20.000000
        570.00	     392.80000	     26.161889	     3074.7521	     20.000000
        571.00	     428.80000	     36.368485	     3075.9269	     20.000000
        572.00	     400.80000	     20.698900	     3077.1602	     20.000000
        573.00	     352.80000	     26.161889	     3078.3266	     20.000000
        574.00	     364.80000	     32.550815	     3079.4938	     20.000000
        575.00	     356.80000	     32.221456	     3080.6416	     20.000000
        576.00	     332.80000	     33.199732	     3081.7952	     20.000000
        577.00	     376.80000	     30.666667	     3082.9579	     20.000000
        578.00	     296.80000	     24.184476	     3084.1089	     20.000000
        579.00	     320.80000	     23.888630	     3085.2582	     20.000000
        580.00	     288.80000	     33.967305	     3086.4123	     20.000000
        581.00	     280.80000	     23.132469	     3087.5647	     20.000000
        582.00	     300.80000	     22.939534	     3088.7291	     20.000000
        583.00	     336.80000	     21.868293	     3089.8865	     20.000000
        584.00	     260.80000	     8.0000000	     3091.0423	     20.000000
        585.00	     260.80000	     30.287511	     3092.2053	     20.000000
        586.00	     300.80000	     27.840817	     3093.3614	     20.000000
        587.00	     312.80000	     28.126697	     3094.5222	     20.000000
        588.00	     228.80000	     35.876331	     3095.6633	     20.000000
        589.00	     320.80000	     22.350739	     3096.8182	     20.000000
        590.00	     236.80000	     33.836207	     3097.9782	     20.000000
        591.00	     232.80000	     42.268980	     3099.1219	     20.000000
        592.00	     220.80000	     26.532998	     3100.2791	     20.000000
        593.00	     244.80000	     38.551553	     3101.3919	     20.000000
        594.00	     240.80000	     23.888630	     3102.5874	     20.000000
        595.00	     272.80000	     39.665266	     3103.6994	     20.000000
        596.00	     244.80000	     18.666667	     3104.9172	     20.000000
        597.00	     236.80000	     29.333333	     3106.1637	     20.000000
        598.00	     200.80000	     32.687068	     3107.3083	     20.000000
        599.00	     232.80000	     22.509257	     3108.4747	     20.000000
        600.00	     256.80000	     22.666667	     3109.6117	     20.003300
        601.00	     272.80000	     27.487371	     3110.7855	     20.003300
        602.00	     164.80000	     28.472209	     3111.9401	     20.003300
        603.00	     260.80000	     34.666667	     3113.1111	     20.003300
        604.00	     176.80000	     23.437861	     3114.3488	     20.000000
        605.00	     224.80000	     29.242283	     3115.5145	     20.000000
        606.00	     220.80000	     36.172427	     3116.6732	     20.000000
        607.00	     160.80000	     20.698900	     3117.8269	     20.000000
        608.00	     200.80000	     25.333333	     3118.9769	     20.000000
        609.00	     176.80000	     23.437861	     3120.1297	     20.000000
        610.00	     176.80000	     26.964998	     3121.2919	     20.000000
        611.00	     132.80000	     23.094011	     3122.4361	     20.000000
        612.00	     160.80000	     26.025628	     3123.5996	     20.000000
        613.00	     188.80000	     14.847372	     3124.7536	     20.000000
        614.00	     160.80000	     21.540659	     3125.9193	     20.000000
        615.00	     160.80000	     25.333333	     3127.0763	     20.000000
        616.00	     152.80000	     33.862467	     3128.2282	     20.000000
        617.00	     180.80000	     32.000000	     3129.3792	     20.000000
        618.00	     160.80000	     37.735925	     3130.5472	     20.000000
        619.00	     140.80000	     36.172427	     3131.7061	     20.000000
        620.00	     132.80000	     27.968236	     3132.8480	     20.000000
        621.00	     212.80000	     28.596814	     3133.9779	     20.000000
        622.00	     100.80000	     18.666667	     3135.1592	     20.000000
        623.00	     168.80000	     21.039645	     3136.3258	     20.000000
        624.00	     128.80000	     28.252827	     3137.4793	     20.000000
        625.00	     124.80000	     22.939534	     3138.6417	     20.000000
        626.00	     188.80000	     22.469733	     3139.7850	     20.000000
        627.00	     132.80000	     31.552426	     3140.9480	     20.000000
        628.00	     132.80000	     32.110919	     3142.1027	     20.000000
        629.00	     96.800000	     27.616420	     3143.2733	     20.000000
        630.00	     140.80000	     32.000000	     3144.3702	     20.000000
        631.00	     112.80000	     20.869968	     3145.4490	     20.000000
        632.00	     104.80000	     29.242283	     3146.6081	     20.000000
        633.00	     112.80000	     18.135294	     3147.8037	     20.000000
        634.00	     72.800000	     24.037009	     3149.0474	     20.000000
        635.00	     96.800000	     35.502739	     3150.1989	     20.000000
        636.00	     116.80000	     33.836207	     3151.3590	     20.000000
        637.00	     108.80000	     25.438379	     3152.5192	     20.000000
        638.00	     64.800000	     16.918103	     3153.6662	     20.000000
        639.00	     72.800000	     24.765567	     3154.8179	     20.000000
        640.00	     96.800000	     25.612497	     3155.9874	     20.000000
        641.00	     92.800000	     22.310934	     3157.1466	     20.000000
        642.00	     100.80000	     20.483055	     3158.3062	     20.000000
        643.00	     96.800000	     28.875210	     3159.4552	     20.000000
        644.00	     72.800000	     19.821425	     3160.6141	     20.000000
        645.00	     108.80000	     29.089899	     3164.8149	     20.003300
        646.00	     72.800000	     33.226495	     3165.9889	     20.003300
        647.00	     68.800000	     27.840817	     3167.2307	     20.000000
        648.00	     104.80000	     19.275776	     3168.3974	     20.000000
        649.00	     84.800000	     39.642850	     3169.6009	     20.000000
        650.00	     48.800000	     23.132469	     3170.8042	     20.000000
