Title=Muestra 10 - 4C (toma 2)
Comment=Rejillas de 0.5 y 1.0
Signature=ISS_Experiment_Ver_1_0
Timestamp=Wed Jul 23 14:50:51 2025
Product=Vinci 3
SoftwareVersion=RELEASE.3.2.4
BuildNumber=518
RealTimeStart=2191.4303739

AcquisitionType=Photon Counting
AcquisitionFormat=L
AcquisitionSide=Right

Measurable=Intensity
MaxIterations=10

RightEmissionWavelengthBandwidth=8.0
ExcitationWavelengthBandwidth=8.0
Visualization=Y:Intensity,X:EmissionWavelength,PlotType:2D


EmissionWavelength=type:numeric,unit:nm,from:490.0,to:650.0,step:1.0
ExcitationWavelength=type:numeric,unit:nm,fixed:470.0

Space=EmissionWavelength
Columns=EmissionWavelength,Intensity,IntensityStdError,RealTime,RealTemperature
Dark=84.8, 542.4
[Data]
        490.00	     32845.600	     234.30654	     2196.6153	     20.053300
        491.00	     45049.600	     331.77234	     2198.1222	     20.053300
        492.00	     60625.600	     295.01337	     2199.2798	     20.053300
        493.00	     77641.600	     234.46961	     2200.3968	     20.053300
        494.00	     96853.600	     373.35476	     2201.5925	     20.053300
        495.00	     116401.60	     402.04809	     2202.7081	     20.053300
        496.00	     134445.60	     328.28443	     2203.8942	     20.053300
        497.00	     150581.60	     328.52262	     2205.0811	     20.053300
        498.00	     164301.60	     587.70968	     2206.3341	     20.053300
        499.00	     175061.60	     604.00000	     2207.4821	     20.050000
        500.00	     183061.60	     271.25716	     2208.6375	     20.050000
        501.00	     186909.60	     608.94225	     2209.7884	     20.053300
        502.00	     189413.60	     598.53005	     2210.9414	     20.050000
        503.00	     190629.60	     512.94531	     2212.1039	     20.053300
        504.00	     187365.60	     569.94503	     2213.2588	     20.053300
        505.00	     185837.60	     442.38746	     2214.4256	     20.053300
        506.00	     184517.60	     345.75521	     2215.5635	     20.053300
        507.00	     182881.60	     483.88061	     2216.6134	     20.053300
        508.00	     180873.60	     417.96119	     2217.7948	     20.053300
        509.00	     179853.60	     422.66667	     2218.9416	     20.053300
        510.00	     178697.60	     478.88760	     2220.0834	     20.053300
        511.00	     177861.60	     577.11774	     2221.2459	     20.053300
        512.00	     176637.60	     454.40070	     2222.4059	     20.053300
        513.00	     176245.60	     296.83067	     2223.5594	     20.053300
        514.00	     175909.60	     453.84481	     2224.7233	     20.053300
        515.00	     176429.60	     442.21865	     2225.8786	     20.050000
        516.00	     177045.60	     356.27954	     2227.0292	     20.050000
        517.00	     176321.60	     427.63224	     2228.1441	     20.050000
        518.00	     176333.60	     489.15165	     2229.3254	     20.050000
        519.00	     176437.60	     569.13970	     2230.4934	     20.053300
        520.00	     175953.60	     466.94087	     2231.6534	     20.050000
        521.00	     176217.60	     536.42438	     2232.8066	     20.053300
        522.00	     174285.60	     608.88386	     2233.9619	     20.053300
        523.00	     173885.60	     747.76229	     2235.1058	     20.053300
        524.00	     171889.60	     562.21151	     2236.2802	     20.053300
        525.00	     169849.60	     396.24011	     2237.4352	     20.053300
        526.00	     168293.60	     530.33993	     2238.5898	     20.053300
        527.00	     165485.60	     379.10069	     2239.7475	     20.053300
        528.00	     163077.60	     369.13111	     2240.8904	     20.053300
        529.00	     159009.60	     320.87658	     2242.0480	     20.053300
        530.00	     155449.60	     371.89246	     2243.2060	     20.053300
        531.00	     151457.60	     626.89358	     2244.3237	     20.053300
        532.00	     146177.60	     305.62141	     2245.5194	     20.053300
        533.00	     143313.60	     468.30949	     2246.6763	     20.053300
        534.00	     137473.60	     420.63233	     2247.8268	     20.053300
        535.00	     132993.60	     370.95432	     2248.9839	     20.053300
        536.00	     127925.60	     363.73617	     2250.1345	     20.066600
        537.00	     124461.60	     369.28520	     2251.2983	     20.066600
        538.00	     119405.60	     498.88943	     2252.4585	     20.066600
        539.00	     115525.60	     349.73260	     2253.6194	     20.066600
        540.00	     110749.60	     384.31700	     2254.7794	     20.066600
        541.00	     106465.60	     324.84116	     2255.9295	     20.066600
        542.00	     101073.60	     215.67053	     2257.0803	     20.066600
        543.00	     96893.600	     349.95619	     2258.2393	     20.066600
        544.00	     93405.600	     292.54743	     2259.3992	     20.066600
        545.00	     89421.600	     170.48428	     2260.5581	     20.066600
        546.00	     85409.600	     259.55860	     2261.7093	     20.066600
        547.00	     81737.600	     247.65567	     2262.8615	     20.066600
        548.00	     78273.600	     203.62929	     2264.0297	     20.066600
        549.00	     74721.600	     199.92888	     2265.1787	     20.066600
        550.00	     72005.600	     329.74333	     2266.3309	     20.066600
        551.00	     69157.600	     264.74306	     2267.4892	     20.066600
        552.00	     65845.600	     407.57494	     2268.6410	     20.066600
        553.00	     63713.600	     125.67330	     2269.8138	     20.066600
        554.00	     60921.600	     325.40983	     2271.0527	     20.060000
        555.00	     58769.600	     227.51215	     2272.2031	     20.060000
        556.00	     56557.600	     172.33043	     2273.3776	     20.066600
        557.00	     54865.600	     275.44227	     2274.5249	     20.060000
        558.00	     52677.600	     211.17660	     2275.6398	     20.060000
        559.00	     50917.600	     218.94697	     2276.8238	     20.060000
        560.00	     48857.600	     222.94992	     2277.9955	     20.060000
        561.00	     47213.600	     192.70703	     2279.1470	     20.060000
        562.00	     46241.600	     246.37460	     2280.3078	     20.060000
        563.00	     44773.600	     148.88624	     2281.4475	     20.060000
        564.00	     42865.600	     274.27804	     2282.6336	     20.060000
        565.00	     41597.600	     219.83832	     2283.8726	     20.060000
        566.00	     40097.600	     173.53834	     2285.0262	     20.060000
        567.00	     38609.600	     161.85590	     2286.1913	     20.060000
        568.00	     37205.600	     194.59816	     2287.3392	     20.060000
        569.00	     36365.600	     166.53862	     2288.4494	     20.060000
        570.00	     35469.600	     162.65027	     2289.6522	     20.060000
        571.00	     33961.600	     203.62929	     2290.8053	     20.060000
        572.00	     33245.600	     158.10545	     2291.9526	     20.060000
        573.00	     31933.600	     244.14568	     2293.1065	     20.060000
        574.00	     31109.600	     151.44343	     2294.2666	     20.060000
        575.00	     30257.600	     147.75355	     2295.4098	     20.060000
        576.00	     28809.600	     182.31109	     2296.5741	     20.060000
        577.00	     27781.600	     144.03086	     2297.7204	     20.060000
        578.00	     26821.600	     176.83137	     2298.7700	     20.060000
        579.00	     26213.600	     158.93535	     2299.9387	     20.060000
        580.00	     25129.600	     176.46403	     2301.0787	     20.060000
        581.00	     24133.600	     149.00559	     2302.2450	     20.060000
        582.00	     23445.600	     147.87983	     2303.3868	     20.060000
        583.00	     22621.600	     154.39632	     2304.5498	     20.060000
        584.00	     22009.600	     184.82905	     2305.7081	     20.060000
        585.00	     21049.600	     174.13150	     2306.8598	     20.060000
        586.00	     20457.600	     134.66007	     2308.0091	     20.060000
        587.00	     19717.600	     90.283504	     2309.1745	     20.073300
        588.00	     19149.600	     139.33812	     2310.3332	     20.073300
        589.00	     18573.600	     138.87804	     2311.4941	     20.073300
        590.00	     17777.600	     200.70985	     2312.6497	     20.073300
        591.00	     17289.600	     125.47510	     2313.8177	     20.073300
        592.00	     16565.600	     145.45561	     2314.9653	     20.076600
        593.00	     16025.600	     79.061158	     2316.1234	     20.073300
        594.00	     15501.600	     63.512029	     2317.2864	     20.073300
        595.00	     15049.600	     106.46648	     2318.4326	     20.073300
        596.00	     14333.600	     140.53232	     2319.5528	     20.073300
        597.00	     13965.600	     135.32512	     2320.7399	     20.073300
        598.00	     13729.600	     109.10545	     2321.8969	     20.073300
        599.00	     13205.600	     99.786439	     2323.0537	     20.073300
        600.00	     12885.600	     120.15545	     2324.2081	     20.073300
        601.00	     12365.600	     115.78524	     2325.3566	     20.073300
        602.00	     12045.600	     79.565487	     2326.5159	     20.073300
        603.00	     11469.600	     95.972218	     2327.6840	     20.073300
        604.00	     11261.600	     66.519838	     2328.8318	     20.073300
        605.00	     11057.600	     113.76389	     2329.9445	     20.076600
        606.00	     10573.600	     106.57496	     2331.1507	     20.076600
        607.00	     10137.600	     91.603008	     2332.3251	     20.076600
        608.00	     10097.600	     98.160866	     2333.5686	     20.076600
        609.00	     9577.6000	     88.443328	     2334.6792	     20.076600
        610.00	     9365.6000	     70.565966	     2335.8722	     20.076600
        611.00	     9069.6000	     101.02585	     2337.0338	     20.076600
        612.00	     8749.6000	     122.35468	     2338.1813	     20.076600
        613.00	     8405.6000	     91.612711	     2339.2962	     20.076600
        614.00	     8025.6000	     83.223928	     2340.4937	     20.076600
        615.00	     8017.6000	     89.044309	     2341.6386	     20.070000
        616.00	     7709.6000	     123.65544	     2342.7934	     20.076600
        617.00	     7725.6000	     76.373352	     2343.9589	     20.070000
        618.00	     7433.6000	     49.243161	     2345.1210	     20.070000
        619.00	     7117.6000	     78.937387	     2346.2661	     20.070000
        620.00	     6993.6000	     83.947073	     2347.4199	     20.070000
        621.00	     6693.6000	     79.207183	     2348.5473	     20.080000
        622.00	     6697.6000	     73.272702	     2349.7384	     20.080000
        623.00	     6497.6000	     96.701143	     2350.8554	     20.080000
        624.00	     6245.6000	     98.169921	     2352.0592	     20.070000
        625.00	     6069.6000	     87.442680	     2353.2118	     20.070000
        626.00	     5941.6000	     53.483123	     2354.3781	     20.070000
        627.00	     5769.6000	     92.144814	     2355.5227	     20.070000
        628.00	     5393.6000	     82.235434	     2356.6864	     20.080000
        629.00	     5457.6000	     83.266640	     2357.8233	     20.080000
        630.00	     5369.6000	     86.779414	     2358.9931	     20.080000
        631.00	     5169.6000	     46.494922	     2360.1491	     20.080000
        632.00	     5133.6000	     70.666667	     2361.2629	     20.080000
        633.00	     4817.6000	     78.881064	     2362.4505	     20.080000
        634.00	     4725.6000	     61.982076	     2363.6080	     20.080000
        635.00	     4561.6000	     76.175237	     2364.7700	     20.080000
        636.00	     4517.6000	     64.841688	     2365.9310	     20.083300
        637.00	     4445.6000	     62.553089	     2367.1012	     20.080000
        638.00	     4365.6000	     64.511842	     2368.3345	     20.080000
        639.00	     4101.6000	     52.476450	     2369.4591	     20.080000
        640.00	     4009.6000	     67.409198	     2370.6500	     20.083300
        641.00	     4037.6000	     52.408651	     2371.8203	     20.083300
        642.00	     3917.6000	     35.901099	     2372.9639	     20.083300
        643.00	     3709.6000	     55.633723	     2374.1148	     20.083300
        644.00	     3604.0000	     59.044240	     2375.2754	     20.083300
        645.00	     3468.0000	     71.168033	     2379.4818	     20.083300
        646.00	     3460.0000	     56.584254	     2380.6471	     20.083300
        647.00	     3276.0000	     48.240140	     2381.7913	     20.086600
        648.00	     3220.0000	     37.261836	     2382.9222	     20.086600
        649.00	     3128.0000	     50.314566	     2384.1201	     20.086600
        650.00	     3156.0000	     61.231800	     2385.2738	     20.086600
