Title=Muestra 2 - 4C
Comment=Rejillas de 0.5 y 1.0
Signature=ISS_Experiment_Ver_1_0
Timestamp=Wed Jul 23 14:43:29 2025
Product=Vinci 3
SoftwareVersion=RELEASE.3.2.4
BuildNumber=518
RealTimeStart=1749.4801927

AcquisitionType=Photon Counting
AcquisitionFormat=L
AcquisitionSide=Right

Measurable=Intensity
MaxIterations=10

RightEmissionWavelengthBandwidth=8.0
ExcitationWavelengthBandwidth=8.0
Visualization=Y:Intensity,X:EmissionWavelength,PlotType:2D


EmissionWavelength=type:numeric,unit:nm,from:490.0,to:650.0,step:1.0
ExcitationWavelength=type:numeric,unit:nm,fixed:470.0

Space=EmissionWavelength
Columns=EmissionWavelength,Intensity,IntensityStdError,RealTime,RealTemperature
Dark=88.0, 518.4
[Data]
        490.00	     345817.60	     798.13561	     1754.6533	     20.003300
        491.00	     393577.60	     598.01747	     1756.1253	     20.003300
        492.00	     441725.60	     613.49128	     1757.2885	     20.003300
        493.00	     487609.60	     810.10946	     1758.4422	     20.003300
        494.00	     523797.60	     562.20044	     1759.6084	     20.000000
        495.00	     548261.60	     1232.9297	     1760.7698	     20.000000
        496.00	     561905.60	     1094.1980	     1761.9135	     20.000000
        497.00	     572217.60	     997.65414	     1762.9638	     20.000000
        498.00	     571169.60	     775.21151	     1764.1328	     20.000000
        499.00	     564541.60	     1005.4651	     1765.2851	     20.000000
        500.00	     552557.60	     761.99621	     1766.4541	     20.000000
        501.00	     539449.60	     1237.9165	     1767.6050	     20.000000
        502.00	     518573.60	     1139.4197	     1768.7758	     20.000000
        503.00	     501973.60	     977.32606	     1769.9263	     19.990000
        504.00	     484545.60	     1008.8533	     1771.0876	     20.000000
        505.00	     469297.60	     874.51218	     1772.2390	     20.000000
        506.00	     456133.60	     1154.4857	     1773.3897	     20.000000
        507.00	     442765.60	     585.74018	     1774.5482	     20.000000
        508.00	     430445.60	     560.49026	     1775.7053	     19.990000
        509.00	     424137.60	     710.68543	     1776.8613	     20.000000
        510.00	     415929.60	     808.32997	     1778.0332	     19.990000
        511.00	     411021.60	     546.93489	     1779.1696	     19.990000
        512.00	     406049.60	     567.18564	     1780.2964	     20.000000
        513.00	     402113.60	     661.19891	     1781.4793	     20.000000
        514.00	     399405.60	     619.89103	     1782.6539	     20.000000
        515.00	     396897.60	     741.27098	     1783.8044	     20.000000
        516.00	     393969.60	     666.50131	     1784.9179	     20.000000
        517.00	     391769.60	     496.70201	     1786.1156	     20.000000
        518.00	     389969.60	     585.87219	     1787.2631	     20.000000
        519.00	     388069.60	     455.17469	     1788.4181	     20.000000
        520.00	     385445.60	     667.42490	     1789.5862	     20.000000
        521.00	     382805.60	     888.63341	     1790.7464	     19.990000
        522.00	     378501.60	     617.38517	     1791.9074	     20.000000
        523.00	     376237.60	     560.77565	     1793.0511	     20.000000
        524.00	     370501.60	     676.09993	     1794.2161	     19.990000
        525.00	     366041.60	     567.47393	     1795.3626	     19.990000
        526.00	     359953.60	     607.32711	     1796.5227	     20.000000
        527.00	     353681.60	     512.83959	     1797.6753	     19.990000
        528.00	     347069.60	     423.19630	     1798.8320	     19.990000
        529.00	     339641.60	     867.28183	     1799.9865	     19.990000
        530.00	     330513.60	     347.68057	     1801.1366	     19.990000
        531.00	     323189.60	     438.82874	     1802.2963	     20.000000
        532.00	     312277.60	     618.11038	     1803.4543	     19.990000
        533.00	     303365.60	     536.63809	     1804.6121	     19.990000
        534.00	     293697.60	     732.75614	     1805.7624	     19.990000
        535.00	     285093.60	     563.00937	     1806.8810	     20.000000
        536.00	     274553.60	     602.41883	     1808.0773	     20.000000
        537.00	     264753.60	     429.64792	     1809.2250	     20.000000
        538.00	     254605.60	     758.65261	     1810.3794	     20.000000
        539.00	     244777.60	     506.74385	     1811.5305	     20.000000
        540.00	     236825.60	     402.75496	     1812.6957	     20.000000
        541.00	     227689.60	     606.77069	     1813.8525	     20.000000
        542.00	     216897.60	     542.36355	     1814.9690	     20.000000
        543.00	     209313.60	     363.13695	     1816.1664	     20.000000
        544.00	     201069.60	     567.13079	     1817.2872	     20.000000
        545.00	     193357.60	     622.32396	     1818.4749	     20.000000
        546.00	     184385.60	     418.34382	     1819.6448	     20.000000
        547.00	     176689.60	     449.82169	     1820.7894	     20.000000
        548.00	     170053.60	     264.86391	     1821.9550	     20.000000
        549.00	     162649.60	     676.14068	     1823.1110	     20.000000
        550.00	     155985.60	     362.12705	     1824.2648	     20.000000
        551.00	     150217.60	     443.34887	     1825.4286	     20.000000
        552.00	     145241.60	     391.05555	     1826.5752	     20.000000
        553.00	     139461.60	     501.45566	     1827.7428	     20.000000
        554.00	     134181.60	     387.09172	     1828.8923	     20.000000
        555.00	     128665.60	     345.64979	     1830.0563	     20.000000
        556.00	     123697.60	     307.25740	     1831.2042	     20.000000
        557.00	     119573.60	     269.85099	     1832.3537	     20.000000
        558.00	     115629.60	     429.53411	     1833.4841	     20.000000
        559.00	     111913.60	     343.41035	     1834.6708	     20.000000
        560.00	     107545.60	     394.59459	     1835.8403	     20.000000
        561.00	     104917.60	     485.39377	     1837.0053	     20.000000
        562.00	     100241.60	     393.14120	     1838.1483	     20.000000
        563.00	     97229.600	     185.33333	     1839.3205	     20.000000
        564.00	     93693.600	     463.57260	     1840.4815	     20.000000
        565.00	     90777.600	     369.12870	     1841.6323	     20.000000
        566.00	     87749.600	     302.23170	     1842.7746	     20.003300
        567.00	     85025.600	     386.62988	     1843.9403	     20.000000
        568.00	     81945.600	     254.60732	     1845.1036	     20.000000
        569.00	     79217.600	     252.92599	     1846.2481	     20.003300
        570.00	     77161.600	     238.96071	     1847.4071	     20.003300
        571.00	     74793.600	     443.73365	     1848.5704	     20.003300
        572.00	     71769.600	     264.71284	     1849.7326	     20.003300
        573.00	     70037.600	     254.41523	     1850.8889	     20.003300
        574.00	     67625.600	     271.30630	     1852.0527	     20.003300
        575.00	     64817.600	     286.04273	     1853.2105	     20.003300
        576.00	     62469.600	     175.47903	     1854.3617	     20.003300
        577.00	     60869.600	     217.95412	     1855.5111	     20.003300
        578.00	     58525.600	     295.47401	     1856.6677	     20.003300
        579.00	     56121.600	     143.23252	     1857.8254	     20.003300
        580.00	     53953.600	     293.92667	     1858.9715	     20.003300
        581.00	     52641.600	     261.95844	     1860.1305	     20.003300
        582.00	     50509.600	     175.68153	     1861.2865	     20.003300
        583.00	     48717.600	     309.46262	     1862.4477	     20.003300
        584.00	     47149.600	     177.19293	     1863.5966	     20.006600
        585.00	     45185.600	     392.33546	     1864.7534	     20.003300
        586.00	     43673.600	     229.30232	     1865.9126	     20.003300
        587.00	     42361.600	     166.31964	     1867.0765	     20.003300
        588.00	     40721.600	     199.46595	     1868.2206	     20.003300
        589.00	     39385.600	     236.73332	     1869.3800	     20.003300
        590.00	     37969.600	     265.98580	     1870.5249	     20.003300
        591.00	     36721.600	     195.95918	     1871.6848	     20.003300
        592.00	     35357.600	     274.06082	     1872.8525	     20.003300
        593.00	     34405.600	     194.08589	     1874.0021	     20.006600
        594.00	     33117.600	     217.82358	     1875.1592	     20.006600
        595.00	     31497.600	     218.61788	     1876.3293	     20.006600
        596.00	     30293.600	     259.37018	     1877.4758	     20.006600
        597.00	     29729.600	     134.63366	     1878.6286	     20.003300
        598.00	     28425.600	     200.01778	     1879.7806	     20.003300
        599.00	     27833.600	     108.45173	     1880.9514	     20.006600
        600.00	     26433.600	     187.97636	     1882.0970	     20.006600
        601.00	     25865.600	     118.98833	     1883.2497	     20.006600
        602.00	     25321.600	     230.16902	     1884.4128	     20.006600
        603.00	     23869.600	     112.67258	     1885.5754	     20.006600
        604.00	     23009.600	     170.62499	     1886.7177	     20.006600
        605.00	     22597.600	     152.42630	     1887.8785	     20.006600
        606.00	     21533.600	     131.86525	     1888.9953	     20.006600
        607.00	     20905.600	     154.59769	     1890.1785	     20.006600
        608.00	     20265.600	     129.98461	     1891.3524	     20.006600
        609.00	     19613.600	     92.193034	     1892.4963	     20.006600
        610.00	     19009.600	     149.64254	     1893.6574	     20.006600
        611.00	     18469.600	     183.30788	     1894.8047	     20.006600
        612.00	     17741.600	     114.73641	     1895.9661	     20.006600
        613.00	     17365.600	     106.57496	     1897.1189	     20.006600
        614.00	     16813.600	     119.26441	     1898.2791	     20.006600
        615.00	     16197.600	     108.23021	     1899.4319	     20.010000
        616.00	     15737.600	     97.287661	     1900.5836	     20.010000
        617.00	     15321.600	     133.06640	     1901.7471	     20.010000
        618.00	     14621.600	     109.66616	     1902.8966	     20.010000
        619.00	     14485.600	     144.03086	     1904.0672	     20.010000
        620.00	     13997.600	     138.49348	     1905.3134	     20.010000
        621.00	     13597.600	     91.106775	     1906.4335	     20.010000
        622.00	     13061.600	     78.711851	     1907.6342	     20.010000
        623.00	     12729.600	     120.56165	     1908.7785	     20.010000
        624.00	     12225.600	     158.23471	     1909.9624	     20.010000
        625.00	     12081.600	     100.31063	     1911.1891	     20.006600
        626.00	     11537.600	     109.65805	     1912.3533	     20.010000
        627.00	     11185.600	     138.84604	     1913.5210	     20.010000
        628.00	     10877.600	     116.91592	     1914.6805	     20.010000
        629.00	     10625.600	     130.53054	     1915.8374	     20.010000
        630.00	     10081.600	     82.623645	     1916.9878	     20.010000
        631.00	     9657.6000	     90.470376	     1918.1382	     20.010000
        632.00	     9453.6000	     74.487881	     1919.3140	     20.010000
        633.00	     9193.6000	     52.255781	     1920.4773	     20.010000
        634.00	     8989.6000	     110.44154	     1921.6116	     20.010000
        635.00	     8709.6000	     71.068043	     1922.7842	     20.010000
        636.00	     8621.6000	     111.59450	     1923.9295	     20.010000
        637.00	     8201.6000	     95.405567	     1925.0973	     20.010000
        638.00	     8061.6000	     82.677419	     1926.2393	     20.010000
        639.00	     7857.6000	     91.447617	     1927.3932	     20.010000
        640.00	     7573.6000	     66.144623	     1928.5584	     20.010000
        641.00	     7437.6000	     87.320610	     1929.7129	     20.010000
        642.00	     7005.6000	     105.90562	     1930.8670	     20.010000
        643.00	     6945.6000	     69.844271	     1932.0234	     20.013300
        644.00	     6699.2000	     75.377568	     1933.1847	     20.010000
        645.00	     6575.2000	     73.623668	     1937.3847	     20.013300
        646.00	     6239.2000	     65.875303	     1938.5571	     20.013300
        647.00	     6007.2000	     76.466405	     1939.7961	     20.010000
        648.00	     5863.2000	     76.140222	     1940.9543	     20.013300
        649.00	     6015.2000	     68.365033	     1942.1131	     20.010000
        650.00	     5615.2000	     68.883154	     1943.2665	     20.010000
