Title=Muestra 5 - 4C (toma 3)
Comment=Rejillas de 0.5 y 1.0
Signature=ISS_Experiment_Ver_1_0
Timestamp=Wed Jul 23 15:53:29 2025
Product=Vinci 3
SoftwareVersion=RELEASE.3.2.4
BuildNumber=518
RealTimeStart=5948.8235349

AcquisitionType=Photon Counting
AcquisitionFormat=L
AcquisitionSide=Right

Measurable=Intensity
MaxIterations=10

RightEmissionWavelengthBandwidth=8.0
ExcitationWavelengthBandwidth=8.0
Visualization=Y:Intensity,X:EmissionWavelength,PlotType:2D


EmissionWavelength=type:numeric,unit:nm,from:490.0,to:650.0,step:1.0
ExcitationWavelength=type:numeric,unit:nm,fixed:470.0

Space=EmissionWavelength
Columns=EmissionWavelength,Intensity,IntensityStdError,RealTime,RealTemperature
Dark=124.8, 652.8
[Data]
        490.00	     228299.20	     499.84175	     5954.0289	     19.990000
        491.00	     264331.20	     422.10899	     5955.4875	     19.990000
        492.00	     299391.20	     758.48856	     5956.6314	     19.990000
        493.00	     337255.20	     656.23979	     5957.7904	     19.990000
        494.00	     365831.20	     868.66334	     5958.9591	     19.990000
        495.00	     386391.20	     624.03561	     5960.1116	     20.000000
        496.00	     401995.20	     592.75028	     5961.2629	     20.000000
        497.00	     410091.20	     637.86310	     5962.4262	     20.000000
        498.00	     413079.20	     849.03187	     5963.5994	     20.000000
        499.00	     408171.20	     960.15184	     5964.7447	     20.000000
        500.00	     402251.20	     861.07323	     5965.9095	     20.000000
        501.00	     391855.20	     1107.0048	     5967.0669	     20.000000
        502.00	     379519.20	     797.55292	     5968.2131	     20.000000
        503.00	     368675.20	     448.87217	     5969.3747	     20.000000
        504.00	     354799.20	     752.99816	     5970.5403	     20.000000
        505.00	     344175.20	     632.03516	     5971.6901	     20.000000
        506.00	     331571.20	     703.41895	     5972.8484	     20.000000
        507.00	     324807.20	     351.26438	     5973.9914	     20.000000
        508.00	     315719.20	     552.68396	     5975.1538	     20.000000
        509.00	     309183.20	     437.05886	     5976.3159	     20.000000
        510.00	     304767.20	     645.31818	     5977.4670	     20.000000
        511.00	     301463.20	     630.55390	     5978.6117	     20.000000
        512.00	     296139.20	     676.03550	     5979.7665	     20.000000
        513.00	     295147.20	     804.27745	     5980.9234	     20.000000
        514.00	     292515.20	     666.55466	     5982.0789	     20.000000
        515.00	     290539.20	     471.05744	     5983.2336	     20.000000
        516.00	     289347.20	     533.06660	     5984.3937	     20.000000
        517.00	     287783.20	     503.97354	     5985.5400	     20.000000
        518.00	     287023.20	     761.66951	     5986.7096	     20.000000
        519.00	     285831.20	     525.55833	     5987.8578	     20.000000
        520.00	     283531.20	     509.29843	     5989.0118	     20.000000
        521.00	     282251.20	     525.71898	     5990.1661	     20.000000
        522.00	     279511.20	     489.15165	     5991.3304	     20.000000
        523.00	     277627.20	     693.56406	     5992.4819	     20.000000
        524.00	     274535.20	     440.72869	     5993.6477	     20.000000
        525.00	     271067.20	     663.67328	     5994.8215	     20.000000
        526.00	     266039.20	     729.49419	     5996.0714	     20.000000
        527.00	     261263.20	     591.86935	     5997.2128	     20.000000
        528.00	     255027.20	     419.48116	     5998.3740	     20.000000
        529.00	     250215.20	     667.46752	     5999.5264	     20.000000
        530.00	     243875.20	     412.24804	     6000.6931	     20.000000
        531.00	     237355.20	     743.77535	     6001.8497	     20.000000
        532.00	     230007.20	     422.02686	     6002.9967	     20.000000
        533.00	     224175.20	     1005.9918	     6004.1489	     20.000000
        534.00	     216187.20	     429.69757	     6005.2010	     20.000000
        535.00	     209411.20	     479.00638	     6006.3710	     20.000000
        536.00	     201671.20	     330.19590	     6007.5236	     20.000000
        537.00	     194919.20	     645.47795	     6008.6796	     20.000000
        538.00	     187303.20	     460.31680	     6009.8291	     20.000000
        539.00	     180535.20	     304.51710	     6011.0039	     20.000000
        540.00	     172171.20	     452.79183	     6012.1534	     20.000000
        541.00	     165871.20	     521.38107	     6013.3135	     20.000000
        542.00	     159019.20	     328.86607	     6014.4719	     20.000000
        543.00	     152655.20	     301.46605	     6015.6274	     20.000000
        544.00	     145591.20	     366.48238	     6016.7853	     20.000000
        545.00	     139979.20	     465.43838	     6017.9378	     20.000000
        546.00	     133415.20	     401.20042	     6019.0945	     20.000000
        547.00	     128899.20	     424.19283	     6020.2464	     20.003300
        548.00	     123035.20	     446.52933	     6021.4134	     20.003300
        549.00	     118203.20	     255.79158	     6022.5333	     20.003300
        550.00	     113219.20	     385.41406	     6023.7148	     20.000000
        551.00	     108583.20	     460.89575	     6024.8885	     20.000000
        552.00	     103711.20	     313.74158	     6026.0427	     20.000000
        553.00	     100803.20	     394.63964	     6027.2016	     20.000000
        554.00	     96775.200	     309.38218	     6028.3578	     20.000000
        555.00	     93163.200	     257.86818	     6029.5130	     19.990000
        556.00	     89139.200	     302.15816	     6030.6735	     20.000000
        557.00	     86511.200	     385.39792	     6031.8237	     20.000000
        558.00	     83079.200	     179.18829	     6032.9827	     20.000000
        559.00	     80219.200	     239.46607	     6034.1419	     20.000000
        560.00	     77751.200	     418.60934	     6035.2886	     20.003300
        561.00	     74567.200	     324.70157	     6036.4627	     20.003300
        562.00	     72087.200	     217.56225	     6037.7019	     20.003300
        563.00	     69711.200	     245.95935	     6038.8629	     20.003300
        564.00	     67711.200	     292.14608	     6040.0140	     20.000000
        565.00	     65107.200	     261.61889	     6041.1686	     20.000000
        566.00	     63647.200	     357.88266	     6042.3323	     20.000000
        567.00	     61139.200	     152.70014	     6043.4861	     20.000000
        568.00	     59099.200	     172.38716	     6044.5996	     20.000000
        569.00	     57503.200	     220.17771	     6045.7546	     20.000000
        570.00	     55851.200	     201.87565	     6046.9467	     20.000000
        571.00	     53915.200	     145.66934	     6048.0924	     20.000000
        572.00	     51123.200	     212.68234	     6049.2553	     20.000000
        573.00	     50371.200	     290.85010	     6050.4074	     20.000000
        574.00	     48763.200	     253.55780	     6051.5680	     20.000000
        575.00	     46727.200	     222.81033	     6052.6813	     20.000000
        576.00	     45155.200	     146.03500	     6053.8557	     20.000000
        577.00	     43751.200	     212.28492	     6055.0358	     20.000000
        578.00	     41967.200	     150.64307	     6056.1660	     20.000000
        579.00	     40863.200	     220.90320	     6057.3243	     20.000000
        580.00	     39155.200	     276.28005	     6058.4830	     20.000000
        581.00	     37851.200	     258.00603	     6059.6474	     20.000000
        582.00	     36495.200	     209.29936	     6060.7958	     20.000000
        583.00	     35123.200	     220.96355	     6061.9357	     20.000000
        584.00	     34131.200	     169.93594	     6063.0907	     20.000000
        585.00	     32923.200	     172.01550	     6064.2506	     20.000000
        586.00	     31771.200	     196.79205	     6065.4082	     20.000000
        587.00	     30767.200	     125.53884	     6066.5596	     20.000000
        588.00	     29247.200	     198.95281	     6067.7207	     20.000000
        589.00	     28691.200	     134.15745	     6068.8835	     20.000000
        590.00	     27559.200	     146.79388	     6070.0325	     20.000000
        591.00	     26947.200	     192.94213	     6071.1929	     20.000000
        592.00	     25879.200	     207.59362	     6072.3474	     20.000000
        593.00	     24855.200	     196.32626	     6073.5041	     20.003300
        594.00	     23971.200	     153.67498	     6074.6590	     20.003300
        595.00	     23383.200	     141.28930	     6075.8192	     20.000000
        596.00	     22491.200	     130.93849	     6076.9769	     20.000000
        597.00	     21891.200	     138.20436	     6078.1290	     20.000000
        598.00	     21119.200	     155.03978	     6079.2904	     20.000000
        599.00	     20119.200	     180.96531	     6080.4730	     20.000000
        600.00	     19559.200	     109.95757	     6081.6712	     20.000000
        601.00	     18859.200	     199.71535	     6082.8664	     20.000000
        602.00	     18335.200	     142.61681	     6083.9900	     20.000000
        603.00	     17715.200	     83.862321	     6085.1786	     20.000000
        604.00	     17139.200	     142.21111	     6086.3284	     20.000000
        605.00	     16523.200	     131.07419	     6087.4818	     20.000000
        606.00	     16223.200	     101.97167	     6088.6364	     20.000000
        607.00	     15599.200	     155.26894	     6089.7947	     20.000000
        608.00	     15007.200	     121.06931	     6090.9455	     20.000000
        609.00	     14643.200	     138.97402	     6092.1261	     20.000000
        610.00	     14131.200	     92.414525	     6093.3758	     20.000000
        611.00	     13839.200	     95.041511	     6094.5371	     20.000000
        612.00	     13031.200	     133.65960	     6095.6834	     20.000000
        613.00	     12947.200	     127.33159	     6096.8519	     20.000000
        614.00	     12531.200	     145.71814	     6098.0023	     20.000000
        615.00	     12087.200	     88.894444	     6099.1472	     20.000000
        616.00	     11967.200	     64.841688	     6100.3096	     20.000000
        617.00	     11467.200	     121.91071	     6101.4525	     20.000000
        618.00	     11211.200	     125.53176	     6102.6079	     20.000000
        619.00	     10907.200	     156.40404	     6103.7624	     20.000000
        620.00	     10495.200	     112.83026	     6104.9065	     20.003300
        621.00	     10371.200	     71.105555	     6106.0513	     20.003300
        622.00	     10103.200	     107.40577	     6107.2087	     20.003300
        623.00	     9667.2000	     98.882646	     6108.3638	     20.003300
        624.00	     9259.2000	     95.740390	     6109.5007	     20.000000
        625.00	     9139.2000	     95.368292	     6110.6666	     20.000000
        626.00	     8795.2000	     111.52279	     6111.8103	     19.990000
        627.00	     8519.2000	     77.068512	     6112.9680	     19.990000
        628.00	     8567.2000	     60.000000	     6114.1227	     19.990000
        629.00	     7999.2000	     59.044240	     6115.2653	     20.000000
        630.00	     8039.2000	     75.436508	     6116.4268	     20.000000
        631.00	     7815.2000	     118.81638	     6117.5781	     20.000000
        632.00	     7351.2000	     66.786559	     6118.7405	     20.003300
        633.00	     7191.2000	     47.870195	     6119.8654	     20.003300
        634.00	     6999.2000	     45.038255	     6121.0606	     20.000000
        635.00	     6915.2000	     101.85829	     6122.2145	     20.000000
        636.00	     6611.2000	     125.24820	     6123.3696	     20.000000
        637.00	     6515.2000	     104.27315	     6124.5214	     19.990000
        638.00	     6211.2000	     56.000000	     6125.6853	     19.990000
        639.00	     6003.2000	     59.389487	     6126.8456	     19.990000
        640.00	     6103.2000	     110.34491	     6127.9981	     20.000000
        641.00	     5727.2000	     76.652173	     6129.1519	     20.000000
        642.00	     5695.2000	     91.223779	     6130.2847	     20.000000
        643.00	     5459.2000	     107.46369	     6131.4529	     20.000000
        644.00	     5384.8000	     100.92021	     6132.6029	     20.003300
        645.00	     5348.8000	     97.251107	     6136.9411	     20.000000
        646.00	     5160.8000	     81.551620	     6138.1794	     20.000000
        647.00	     4904.8000	     65.983163	     6139.3346	     20.000000
        648.00	     4868.8000	     52.323778	     6140.4476	     20.000000
        649.00	     4676.8000	     79.509608	     6141.6556	     20.000000
        650.00	     4556.8000	     89.799777	     6142.9069	     20.000000
