Title=muestra 5 5min
Comment=Rejillas de 0.5 y 1.0
Signature=ISS_Experiment_Ver_1_0
Timestamp=Wed Jul 23 15:42:20 2025
Product=Vinci 3
SoftwareVersion=RELEASE.3.2.4
BuildNumber=518
RealTimeStart=5280.3301947

AcquisitionType=Photon Counting
AcquisitionFormat=L
AcquisitionSide=Right

Measurable=Intensity
MaxIterations=10

RightEmissionWavelengthBandwidth=8.0
ExcitationWavelengthBandwidth=8.0
Visualization=Y:Intensity,X:EmissionWavelength,PlotType:2D


EmissionWavelength=type:numeric,unit:nm,from:490.0,to:650.0,step:1.0
ExcitationWavelength=type:numeric,unit:nm,fixed:470.0

Space=EmissionWavelength
Columns=EmissionWavelength,Intensity,IntensityStdError,RealTime,RealTemperature
Dark=115.2, 584.0
[Data]
        490.00	     164456.00	     428.66200	     5285.5708	     20.000000
        491.00	     195644.00	     459.29608	     5287.0339	     20.000000
        492.00	     228272.00	     435.09182	     5288.1907	     20.000000
        493.00	     260496.00	     415.56387	     5289.3066	     20.000000
        494.00	     290432.00	     627.55115	     5290.4951	     20.000000
        495.00	     312456.00	     727.98046	     5291.6527	     20.000000
        496.00	     329732.00	     784.48171	     5292.8052	     20.000000
        497.00	     343112.00	     542.82225	     5293.9669	     20.000000
        498.00	     347296.00	     523.10186	     5295.1272	     20.000000
        499.00	     351576.00	     681.74938	     5296.2768	     20.000000
        500.00	     347668.00	     569.91383	     5297.4415	     20.000000
        501.00	     342500.00	     1032.9238	     5298.5793	     20.000000
        502.00	     334244.00	     654.04179	     5299.7554	     20.000000
        503.00	     325756.00	     660.45775	     5300.9012	     20.000000
        504.00	     316608.00	     889.56019	     5302.0596	     20.000000
        505.00	     307924.00	     493.29910	     5303.2232	     20.000000
        506.00	     300528.00	     844.63904	     5304.3787	     20.000000
        507.00	     292488.00	     630.11251	     5305.4901	     20.000000
        508.00	     286364.00	     466.13494	     5306.6762	     20.000000
        509.00	     281688.00	     498.77361	     5307.8087	     20.000000
        510.00	     277844.00	     502.58178	     5308.9981	     20.000000
        511.00	     274008.00	     581.57793	     5310.1624	     20.000000
        512.00	     270304.00	     490.68841	     5311.3237	     20.000000
        513.00	     268712.00	     376.14182	     5312.5684	     20.000000
        514.00	     265780.00	     517.06694	     5313.7269	     20.000000
        515.00	     265692.00	     774.42337	     5314.8696	     20.000000
        516.00	     264492.00	     626.36730	     5315.9210	     20.000000
        517.00	     265068.00	     395.03811	     5317.0922	     20.000000
        518.00	     263376.00	     339.14926	     5318.2430	     20.000000
        519.00	     262476.00	     523.48405	     5319.4052	     20.000000
        520.00	     260948.00	     621.45492	     5320.5571	     20.000000
        521.00	     259988.00	     531.73260	     5321.7085	     20.003300
        522.00	     257300.00	     593.81853	     5322.8630	     20.003300
        523.00	     255364.00	     537.41935	     5324.0233	     20.003300
        524.00	     249684.00	     527.87372	     5325.1809	     20.003300
        525.00	     249188.00	     625.41862	     5326.3313	     20.000000
        526.00	     244584.00	     373.56183	     5327.4846	     20.000000
        527.00	     240240.00	     658.51550	     5328.6437	     20.000000
        528.00	     236104.00	     574.07084	     5329.8009	     20.000000
        529.00	     231184.00	     555.27531	     5330.9479	     20.000000
        530.00	     224616.00	     503.53418	     5332.1156	     20.000000
        531.00	     219040.00	     467.89173	     5333.2672	     20.000000
        532.00	     211736.00	     290.71559	     5334.4374	     20.000000
        533.00	     206760.00	     734.13774	     5335.6686	     20.000000
        534.00	     199544.00	     350.32937	     5336.8344	     20.000000
        535.00	     193428.00	     560.98485	     5337.9929	     19.990000
        536.00	     186868.00	     326.76461	     5339.1434	     20.000000
        537.00	     180840.00	     562.28739	     5340.2921	     20.000000
        538.00	     173100.00	     409.50702	     5341.4563	     20.000000
        539.00	     166920.00	     449.00681	     5342.6139	     20.000000
        540.00	     160136.00	     372.99985	     5343.7670	     19.990000
        541.00	     153948.00	     503.07676	     5344.9288	     20.000000
        542.00	     146560.00	     625.08168	     5346.0846	     20.000000
        543.00	     141616.00	     441.08956	     5347.2447	     20.000000
        544.00	     135580.00	     503.72656	     5348.4002	     20.000000
        545.00	     130000.00	     319.73322	     5349.5686	     20.000000
        546.00	     124068.00	     361.38253	     5350.7200	     20.000000
        547.00	     119448.00	     412.80827	     5351.8749	     20.000000
        548.00	     113804.00	     464.03257	     5352.9883	     20.000000
        549.00	     108888.00	     292.65376	     5354.1758	     20.000000
        550.00	     104660.00	     340.68950	     5355.3272	     20.000000
        551.00	     101552.00	     381.49181	     5356.4850	     20.000000
        552.00	     97036.000	     247.02676	     5357.6461	     20.000000
        553.00	     93088.000	     336.03174	     5358.8027	     20.003300
        554.00	     89580.000	     364.29292	     5359.9570	     20.000000
        555.00	     86196.000	     211.76507	     5361.1002	     20.000000
        556.00	     82484.000	     427.33489	     5362.2624	     20.000000
        557.00	     79408.000	     352.55512	     5363.4338	     20.000000
        558.00	     76968.000	     213.56654	     5364.5878	     20.000000
        559.00	     74404.000	     340.72080	     5365.7467	     20.000000
        560.00	     71944.000	     274.21322	     5366.9065	     20.000000
        561.00	     69412.000	     256.57228	     5368.0662	     20.000000
        562.00	     66580.000	     209.75753	     5369.2200	     20.000000
        563.00	     64520.000	     246.15803	     5370.3744	     20.000000
        564.00	     62072.000	     219.83428	     5371.5333	     20.000000
        565.00	     60064.000	     212.81604	     5372.6879	     20.000000
        566.00	     58080.000	     223.04559	     5373.8511	     20.000000
        567.00	     56428.000	     228.00000	     5374.9962	     20.000000
        568.00	     54544.000	     185.11738	     5376.1155	     20.000000
        569.00	     52748.000	     287.52121	     5377.2669	     20.000000
        570.00	     50796.000	     289.07515	     5378.4624	     20.000000
        571.00	     49680.000	     315.25369	     5379.6126	     20.000000
        572.00	     47468.000	     244.84371	     5380.7839	     20.000000
        573.00	     45740.000	     122.84769	     5382.0307	     20.003300
        574.00	     44052.000	     246.96918	     5383.1812	     20.003300
        575.00	     42792.000	     288.39479	     5384.3365	     20.003300
        576.00	     41312.000	     166.76797	     5385.4934	     20.000000
        577.00	     40276.000	     196.88688	     5386.6542	     20.000000
        578.00	     38688.000	     215.39009	     5387.8119	     19.990000
        579.00	     37352.000	     209.39702	     5388.9613	     19.990000
        580.00	     35864.000	     100.62913	     5390.1194	     19.990000
        581.00	     34828.000	     246.21941	     5391.2807	     20.000000
        582.00	     33272.000	     215.01008	     5392.4472	     20.000000
        583.00	     32364.000	     275.20013	     5393.5936	     20.000000
        584.00	     31124.000	     238.59217	     5394.7568	     20.000000
        585.00	     29984.000	     175.75741	     5395.9001	     20.000000
        586.00	     29160.000	     223.36418	     5397.0612	     20.003300
        587.00	     28092.000	     173.37948	     5398.2071	     20.003300
        588.00	     26876.000	     190.36806	     5399.3635	     20.003300
        589.00	     26260.000	     230.20377	     5400.5232	     20.000000
        590.00	     25264.000	     213.31667	     5401.6728	     20.000000
        591.00	     24044.000	     188.56652	     5402.8424	     19.990000
        592.00	     23372.000	     192.43007	     5403.9890	     20.000000
        593.00	     22432.000	     150.04592	     5405.1410	     20.000000
        594.00	     21388.000	     162.32204	     5406.2939	     20.000000
        595.00	     20944.000	     100.27518	     5407.4569	     20.000000
        596.00	     20364.000	     155.95441	     5408.6188	     20.000000
        597.00	     19484.000	     119.26441	     5409.7958	     20.000000
        598.00	     18832.000	     117.63597	     5411.0309	     20.000000
        599.00	     18120.000	     136.13066	     5412.1834	     20.000000
        600.00	     17432.000	     129.57366	     5413.3069	     20.000000
        601.00	     17084.000	     111.88089	     5414.4545	     20.000000
        602.00	     16540.000	     152.07600	     5415.6581	     20.000000
        603.00	     16136.000	     106.99948	     5416.8041	     20.000000
        604.00	     15484.000	     112.51469	     5417.9653	     20.000000
        605.00	     14936.000	     133.73274	     5419.1185	     20.000000
        606.00	     14364.000	     121.77210	     5420.2691	     20.000000
        607.00	     14128.000	     136.33945	     5421.4320	     20.000000
        608.00	     13768.000	     124.90708	     5422.5871	     20.000000
        609.00	     13328.000	     161.96570	     5423.7413	     20.003300
        610.00	     12596.000	     134.29652	     5424.9048	     20.003300
        611.00	     12372.000	     131.78434	     5426.0621	     20.003300
        612.00	     12000.000	     83.309330	     5427.2163	     20.000000
        613.00	     11584.000	     68.715193	     5428.3589	     20.000000
        614.00	     11420.000	     125.56716	     5429.5201	     19.990000
        615.00	     11200.000	     138.97402	     5430.6951	     19.990000
        616.00	     10476.000	     90.283504	     5431.9228	     19.990000
        617.00	     10400.000	     133.75932	     5433.0975	     19.990000
        618.00	     10032.000	     55.681635	     5434.2548	     20.000000
        619.00	     9692.0000	     79.877684	     5435.4157	     20.000000
        620.00	     9736.0000	     94.280904	     5436.5655	     20.000000
        621.00	     9152.0000	     87.878704	     5437.7256	     20.000000
        622.00	     9040.0000	     98.738712	     5438.8738	     20.000000
        623.00	     8752.0000	     88.483520	     5440.0321	     20.000000
        624.00	     8564.0000	     76.140222	     5441.1925	     20.000000
        625.00	     8408.0000	     87.797747	     5442.3548	     20.000000
        626.00	     7988.0000	     116.85509	     5443.5038	     20.003300
        627.00	     7876.0000	     73.816590	     5444.6574	     20.003300
        628.00	     7564.0000	     77.298843	     5445.8233	     20.000000
        629.00	     7328.0000	     72.000000	     5446.9699	     20.000000
        630.00	     7136.0000	     93.903023	     5448.1264	     20.000000
        631.00	     6940.0000	     71.913528	     5449.2897	     20.000000
        632.00	     6964.0000	     71.317755	     5450.4462	     20.000000
        633.00	     6736.0000	     95.591724	     5451.5972	     20.000000
        634.00	     6432.0000	     66.452991	     5452.7538	     20.000000
        635.00	     6240.0000	     48.880807	     5453.9112	     20.000000
        636.00	     6132.0000	     85.883642	     5455.0219	     20.000000
        637.00	     5892.0000	     46.742795	     5456.2171	     20.000000
        638.00	     5888.0000	     89.601587	     5457.3804	     20.000000
        639.00	     5664.0000	     86.984034	     5458.5275	     20.000000
        640.00	     5388.0000	     84.548474	     5459.6872	     20.000000
        641.00	     5300.0000	     90.519488	     5460.8426	     20.000000
        642.00	     5344.0000	     74.904383	     5462.0041	     20.000000
        643.00	     5036.0000	     84.380092	     5463.1485	     20.000000
        644.00	     4973.6000	     97.442861	     5464.3087	     20.000000
        645.00	     4865.6000	     56.000000	     5468.5146	     20.000000
        646.00	     4681.6000	     71.554175	     5469.6700	     20.000000
        647.00	     4641.6000	     88.242091	     5470.8155	     20.000000
        648.00	     4377.6000	     43.898874	     5471.9830	     20.000000
        649.00	     4277.6000	     47.121592	     5473.2236	     20.000000
        650.00	     4225.6000	     78.926126	     5474.3897	     20.003300
