Title=negativo T2
Comment=Rejillas de 0.5 y 1.0
Signature=ISS_Experiment_Ver_1_0
Timestamp=Wed Jul 23 15:46:11 2025
Product=Vinci 3
SoftwareVersion=RELEASE.3.2.4
BuildNumber=518
RealTimeStart=5510.8411064

AcquisitionType=Photon Counting
AcquisitionFormat=L
AcquisitionSide=Right

Measurable=Intensity
MaxIterations=10

RightEmissionWavelengthBandwidth=8.0
ExcitationWavelengthBandwidth=8.0
Visualization=Y:Intensity,X:EmissionWavelength,PlotType:2D


EmissionWavelength=type:numeric,unit:nm,from:490.0,to:650.0,step:1.0
ExcitationWavelength=type:numeric,unit:nm,fixed:470.0

Space=EmissionWavelength
Columns=EmissionWavelength,Intensity,IntensityStdError,RealTime,RealTemperature
Dark=118.4, 606.4
[Data]
        490.00	     2417.6000	     49.959984	     5516.0607	     20.000000
        491.00	     2389.6000	     41.931161	     5517.5295	     20.000000
        492.00	     2357.6000	     36.974466	     5518.6805	     20.000000
        493.00	     2133.6000	     47.795862	     5519.8500	     20.000000
        494.00	     2193.6000	     48.442406	     5521.0005	     20.000000
        495.00	     2077.6000	     54.796594	     5522.1464	     20.000000
        496.00	     2153.6000	     48.808014	     5523.3200	     19.990000
        497.00	     2145.6000	     53.599337	     5524.4505	     19.990000
        498.00	     2081.6000	     53.599337	     5525.5959	     20.000000
        499.00	     2221.6000	     59.044240	     5526.7869	     20.000000
        500.00	     2297.6000	     63.161170	     5527.9321	     20.000000
        501.00	     2333.6000	     82.246243	     5529.0929	     20.000000
        502.00	     2373.6000	     68.831517	     5530.2577	     20.000000
        503.00	     2345.6000	     70.250346	     5531.4029	     20.000000
        504.00	     2517.6000	     56.395429	     5532.5728	     20.000000
        505.00	     2573.6000	     61.173705	     5533.7181	     20.000000
        506.00	     2681.6000	     40.792156	     5534.8729	     20.000000
        507.00	     2665.6000	     62.765879	     5536.0376	     20.000000
        508.00	     2641.6000	     36.660606	     5537.1944	     20.000000
        509.00	     2717.6000	     67.580405	     5538.2985	     20.000000
        510.00	     2733.6000	     33.862467	     5539.4598	     20.000000
        511.00	     2697.6000	     47.027179	     5540.6504	     20.000000
        512.00	     2701.6000	     55.952361	     5541.8055	     20.000000
        513.00	     2669.6000	     55.761396	     5542.9523	     20.003300
        514.00	     2593.6000	     39.101009	     5544.1088	     20.003300
        515.00	     2501.6000	     65.060655	     5545.2812	     20.003300
        516.00	     2453.6000	     82.892166	     5546.5278	     20.000000
        517.00	     2393.6000	     65.319726	     5547.6834	     20.000000
        518.00	     2181.6000	     31.580585	     5548.8493	     20.000000
        519.00	     2237.6000	     71.913528	     5550.0881	     20.000000
        520.00	     2293.6000	     43.512450	     5551.2546	     20.000000
        521.00	     2173.6000	     40.110957	     5552.4100	     20.000000
        522.00	     2181.6000	     42.604121	     5553.5720	     20.000000
        523.00	     2153.6000	     38.180856	     5554.7260	     20.000000
        524.00	     2097.6000	     35.377331	     5555.8802	     20.000000
        525.00	     2029.6000	     59.762493	     5557.0443	     20.000000
        526.00	     2029.6000	     63.791326	     5558.1988	     20.000000
        527.00	     1909.6000	     52.476450	     5559.3558	     20.000000
        528.00	     1929.6000	     32.221456	     5560.4997	     20.000000
        529.00	     1949.6000	     34.998413	     5561.6648	     20.003300
        530.00	     1801.6000	     63.048482	     5562.8305	     20.003300
        531.00	     1797.6000	     53.149684	     5563.9757	     20.003300
        532.00	     1689.6000	     77.562878	     5565.1381	     20.000000
        533.00	     1653.6000	     42.687495	     5566.2847	     20.000000
        534.00	     1613.6000	     49.620784	     5567.4468	     20.000000
        535.00	     1513.6000	     25.298221	     5568.6068	     20.000000
        536.00	     1425.6000	     54.258640	     5569.7614	     20.000000
        537.00	     1337.6000	     40.529824	     5570.9255	     20.000000
        538.00	     1293.6000	     39.214510	     5572.0729	     20.000000
        539.00	     1197.6000	     66.786559	     5573.2311	     20.000000
        540.00	     1129.6000	     64.827977	     5574.3917	     20.000000
        541.00	     1117.6000	     60.059230	     5575.5436	     20.000000
        542.00	     1021.6000	     47.721414	     5576.6990	     20.000000
        543.00	     1069.6000	     28.875210	     5577.8577	     20.000000
        544.00	     1021.6000	     28.000000	     5579.0169	     20.000000
        545.00	     937.60000	     29.933259	     5580.1719	     20.000000
        546.00	     949.60000	     53.483123	     5581.3266	     20.000000
        547.00	     997.60000	     43.184359	     5582.4823	     20.000000
        548.00	     917.60000	     35.502739	     5583.6407	     20.000000
        549.00	     885.60000	     34.794636	     5584.7521	     20.000000
        550.00	     905.60000	     27.194771	     5585.9380	     20.000000
        551.00	     821.60000	     32.138589	     5587.1011	     20.000000
        552.00	     853.60000	     26.832816	     5588.2604	     20.000000
        553.00	     861.60000	     57.209168	     5589.4118	     20.000000
        554.00	     757.60000	     36.000000	     5590.5543	     20.000000
        555.00	     873.60000	     25.298221	     5591.6736	     20.000000
        556.00	     793.60000	     46.951512	     5592.8208	     20.000000
        557.00	     753.60000	     29.814240	     5594.0167	     20.000000
        558.00	     801.60000	     47.628190	     5595.1737	     20.000000
        559.00	     749.60000	     30.081371	     5596.3272	     20.000000
        560.00	     713.60000	     33.199732	     5597.4823	     20.000000
        561.00	     749.60000	     30.081371	     5598.5365	     20.000000
        562.00	     681.60000	     20.483055	     5599.7001	     20.003300
        563.00	     661.60000	     34.279894	     5600.8591	     20.003300
        564.00	     597.60000	     39.754804	     5601.9825	     20.000000
        565.00	     609.60000	     43.081318	     5603.1822	     20.000000
        566.00	     577.60000	     31.098410	     5604.3258	     20.000000
        567.00	     589.60000	     39.754804	     5605.4942	     19.990000
        568.00	     545.60000	     22.939534	     5606.6567	     20.000000
        569.00	     469.60000	     22.666667	     5607.8082	     20.000000
        570.00	     485.60000	     35.801924	     5608.9597	     20.000000
        571.00	     417.60000	     34.871192	     5610.1098	     20.000000
        572.00	     481.60000	     25.157283	     5611.2658	     20.000000
        573.00	     461.60000	     56.897569	     5612.4065	     20.000000
        574.00	     437.60000	     39.305075	     5613.5738	     20.000000
        575.00	     441.60000	     33.625387	     5614.7207	     20.000000
        576.00	     425.60000	     52.255781	     5615.8627	     20.000000
        577.00	     381.60000	     26.025628	     5616.9169	     20.000000
        578.00	     421.60000	     40.022216	     5618.0870	     20.000000
        579.00	     381.60000	     26.699979	     5619.2316	     20.000000
        580.00	     397.60000	     13.920409	     5620.3953	     20.000000
        581.00	     413.60000	     21.705094	     5621.5568	     20.000000
        582.00	     373.60000	     31.126980	     5622.7026	     20.000000
        583.00	     353.60000	     30.404678	     5623.8775	     20.000000
        584.00	     373.60000	     26.161889	     5625.0233	     20.000000
        585.00	     365.60000	     36.295087	     5626.1836	     20.000000
        586.00	     285.60000	     27.357713	     5627.3331	     20.000000
        587.00	     333.60000	     22.509257	     5628.4477	     20.000000
        588.00	     281.60000	     19.595918	     5629.6388	     20.000000
        589.00	     333.60000	     40.987803	     5630.7973	     20.000000
        590.00	     317.60000	     29.484459	     5631.9529	     20.000000
        591.00	     293.60000	     20.000000	     5633.1095	     20.000000
        592.00	     309.60000	     29.484459	     5634.2666	     20.003300
        593.00	     313.60000	     34.769079	     5635.4215	     20.003300
        594.00	     297.60000	     33.836207	     5636.5777	     20.003300
        595.00	     281.60000	     29.694743	     5637.7245	     20.000000
        596.00	     253.60000	     36.878178	     5638.8990	     19.990000
        597.00	     257.60000	     17.074998	     5640.1494	     19.990000
        598.00	     305.60000	     35.677568	     5641.2945	     20.000000
        599.00	     253.60000	     26.161889	     5642.4537	     20.000000
        600.00	     181.60000	     32.687068	     5643.6104	     20.000000
        601.00	     281.60000	     37.617963	     5644.7667	     20.000000
        602.00	     269.60000	     38.850139	     5645.9218	     20.000000
        603.00	     257.60000	     37.806525	     5647.0749	     20.000000
        604.00	     257.60000	     31.664912	     5648.2526	     20.000000
        605.00	     241.60000	     33.092463	     5649.5032	     20.000000
        606.00	     225.60000	     50.876757	     5650.6435	     20.000000
        607.00	     233.60000	     20.655911	     5651.8126	     20.000000
        608.00	     261.60000	     20.698900	     5652.9835	     20.000000
        609.00	     265.60000	     46.875722	     5654.1291	     20.000000
        610.00	     213.60000	     44.721360	     5655.2869	     20.003300
        611.00	     245.60000	     40.463976	     5656.4290	     20.003300
        612.00	     281.60000	     42.499673	     5657.5964	     20.000000
        613.00	     197.60000	     25.612497	     5658.7509	     20.000000
        614.00	     205.60000	     42.184779	     5659.9072	     20.000000
        615.00	     169.60000	     26.799668	     5661.0591	     20.000000
        616.00	     165.60000	     23.888630	     5662.2136	     20.000000
        617.00	     185.60000	     20.483055	     5663.3716	     20.000000
        618.00	     249.60000	     23.247461	     5664.5330	     20.000000
        619.00	     217.60000	     27.455014	     5665.6782	     19.990000
        620.00	     189.60000	     24.184476	     5666.8453	     19.990000
        621.00	     225.60000	     34.149996	     5668.0203	     20.000000
        622.00	     225.60000	     38.087618	     5669.1682	     20.000000
        623.00	     157.60000	     33.967305	     5670.3266	     20.000000
        624.00	     161.60000	     30.868898	     5671.4422	     20.000000
        625.00	     181.60000	     23.132469	     5672.6300	     20.003300
        626.00	     161.60000	     33.092463	     5673.7938	     20.000000
        627.00	     153.60000	     31.552426	     5674.9376	     20.000000
        628.00	     149.60000	     17.333333	     5676.0676	     20.000000
        629.00	     165.60000	     39.575526	     5677.2512	     20.000000
        630.00	     181.60000	     35.301873	     5678.4156	     20.000000
        631.00	     201.60000	     29.694743	     5679.5711	     20.000000
        632.00	     137.60000	     38.273867	     5680.7267	     20.000000
        633.00	     109.60000	     19.275776	     5681.8851	     20.000000
        634.00	     145.60000	     30.868898	     5683.0336	     20.000000
        635.00	     141.60000	     27.357713	     5684.1906	     20.000000
        636.00	     109.60000	     20.176995	     5685.3566	     20.000000
        637.00	     141.60000	     21.540659	     5686.5028	     20.000000
        638.00	     157.60000	     17.333333	     5687.6644	     20.000000
        639.00	     133.60000	     21.705094	     5688.8206	     20.000000
        640.00	     177.60000	     24.729649	     5689.9751	     20.000000
        641.00	     169.60000	     32.221456	     5691.1192	     20.000000
        642.00	     137.60000	     24.000000	     5692.2746	     20.000000
        643.00	     153.60000	     27.325202	     5693.4355	     20.000000
        644.00	     140.80000	     22.939534	     5694.5935	     20.000000
        645.00	     68.800000	     27.455014	     5698.7911	     20.000000
        646.00	     112.80000	     28.126697	     5699.9561	     20.000000
        647.00	     100.80000	     34.149996	     5701.1079	     20.000000
        648.00	     84.800000	     26.532998	     5702.2776	     20.003300
        649.00	     120.80000	     28.627881	     5703.5180	     20.000000
        650.00	     96.800000	     24.908722	     5704.6730	     20.000000
