Title=positivo 10 5min
Comment=Rejillas de 0.5 y 1.0
Signature=ISS_Experiment_Ver_1_0
Timestamp=Wed Jul 23 15:30:43 2025
Product=Vinci 3
SoftwareVersion=RELEASE.3.2.4
BuildNumber=518
RealTimeStart=4582.8609838

AcquisitionType=Photon Counting
AcquisitionFormat=L
AcquisitionSide=Right

Measurable=Intensity
MaxIterations=10

RightEmissionWavelengthBandwidth=8.0
ExcitationWavelengthBandwidth=8.0
Visualization=Y:Intensity,X:EmissionWavelength,PlotType:2D


EmissionWavelength=type:numeric,unit:nm,from:490.0,to:650.0,step:1.0
ExcitationWavelength=type:numeric,unit:nm,fixed:470.0

Space=EmissionWavelength
Columns=EmissionWavelength,Intensity,IntensityStdError,RealTime,RealTemperature
Dark=113.6, 579.2
[Data]
        490.00	     39996.800	     176.20190	     4588.0399	     20.000000
        491.00	     53992.800	     241.40699	     4589.4782	     20.000000
        492.00	     70136.800	     1909.4939	     4590.6316	     20.000000
        493.00	     94056.800	     201.45692	     4591.6831	     20.000000
        494.00	     117880.80	     316.49469	     4592.8530	     20.000000
        495.00	     141260.80	     339.88233	     4594.0137	     20.000000
        496.00	     165992.80	     371.18669	     4595.1593	     20.003300
        497.00	     186872.80	     316.82031	     4596.3112	     20.003300
        498.00	     205008.80	     406.57048	     4597.4725	     20.003300
        499.00	     220344.80	     648.01783	     4598.6371	     20.000000
        500.00	     232064.80	     540.96046	     4599.7748	     20.000000
        501.00	     239976.80	     385.12105	     4600.9358	     20.000000
        502.00	     243432.80	     935.16107	     4602.0833	     20.000000
        503.00	     244688.80	     460.91889	     4603.1345	     20.000000
        504.00	     244204.80	     754.62897	     4604.3056	     20.000000
        505.00	     243096.80	     376.15363	     4605.4780	     20.000000
        506.00	     241120.80	     625.70849	     4606.7187	     19.990000
        507.00	     238276.80	     579.63053	     4607.8730	     19.990000
        508.00	     235600.80	     468.42526	     4609.0247	     20.000000
        509.00	     233452.80	     478.50879	     4610.1908	     20.000000
        510.00	     232212.80	     277.75609	     4611.3512	     20.000000
        511.00	     232036.80	     624.68339	     4612.5058	     20.000000
        512.00	     229464.80	     305.82203	     4613.6590	     20.000000
        513.00	     228488.80	     629.01828	     4614.8179	     20.000000
        514.00	     228104.80	     448.34312	     4615.9751	     20.000000
        515.00	     227484.80	     330.72043	     4617.1375	     20.000000
        516.00	     227268.80	     377.39693	     4618.2908	     20.000000
        517.00	     227732.80	     663.31960	     4619.4464	     20.000000
        518.00	     226608.80	     571.31583	     4620.6024	     20.000000
        519.00	     226768.80	     585.94046	     4621.7306	     20.000000
        520.00	     225564.80	     350.19740	     4622.9144	     20.003300
        521.00	     223932.80	     513.00596	     4624.0765	     20.003300
        522.00	     222536.80	     574.02904	     4625.2069	     20.003300
        523.00	     221168.80	     326.71020	     4626.3799	     20.000000
        524.00	     219144.80	     428.51475	     4627.5460	     20.000000
        525.00	     216460.80	     677.45931	     4628.7014	     20.000000
        526.00	     212368.80	     488.40966	     4629.8605	     20.000000
        527.00	     209040.80	     416.98388	     4631.0169	     20.000000
        528.00	     204436.80	     379.43584	     4632.1791	     20.000000
        529.00	     200704.80	     390.25690	     4633.3296	     20.000000
        530.00	     196296.80	     467.55915	     4634.4824	     20.000000
        531.00	     190388.80	     696.65359	     4635.6284	     20.000000
        532.00	     184952.80	     548.12975	     4636.7978	     20.000000
        533.00	     179340.80	     438.38086	     4637.9447	     20.000000
        534.00	     173344.80	     533.21499	     4639.1118	     20.000000
        535.00	     167200.80	     496.00179	     4640.2541	     20.000000
        536.00	     162020.80	     412.04099	     4641.4250	     20.000000
        537.00	     156360.80	     368.45624	     4642.5472	     20.000000
        538.00	     149308.80	     578.20565	     4643.7339	     20.000000
        539.00	     144608.80	     370.65947	     4644.9012	     20.000000
        540.00	     138144.80	     274.12568	     4646.0461	     20.000000
        541.00	     132316.80	     366.51876	     4647.2225	     20.000000
        542.00	     126492.80	     281.94877	     4648.3706	     20.000000
        543.00	     120992.80	     541.14447	     4649.5306	     20.000000
        544.00	     115308.80	     223.88886	     4650.6932	     20.000000
        545.00	     110788.80	     272.65281	     4651.8419	     20.000000
        546.00	     106964.80	     327.58782	     4653.0038	     20.000000
        547.00	     101080.80	     434.52145	     4654.1522	     20.000000
        548.00	     96852.800	     224.04761	     4655.3207	     20.000000
        549.00	     92884.800	     391.88207	     4656.4687	     20.000000
        550.00	     89288.800	     170.75519	     4657.6259	     20.000000
        551.00	     85116.800	     301.35693	     4658.7808	     20.000000
        552.00	     81972.800	     241.02005	     4659.9409	     20.000000
        553.00	     78516.800	     241.63885	     4661.1022	     20.000000
        554.00	     74404.800	     275.72611	     4662.2486	     20.000000
        555.00	     72200.800	     359.76536	     4663.4018	     20.000000
        556.00	     68764.800	     389.69846	     4664.5586	     20.000000
        557.00	     66380.800	     265.12890	     4665.7185	     20.000000
        558.00	     63744.800	     180.41434	     4666.8864	     20.000000
        559.00	     61200.800	     296.60299	     4668.0355	     20.000000
        560.00	     59232.800	     296.35114	     4669.1910	     20.000000
        561.00	     56928.800	     271.29648	     4670.3466	     20.000000
        562.00	     54512.800	     242.50911	     4671.5055	     20.000000
        563.00	     52972.800	     206.28352	     4672.6534	     20.000000
        564.00	     50900.800	     292.66591	     4673.8115	     20.000000
        565.00	     49416.800	     203.47645	     4674.9664	     20.000000
        566.00	     47384.800	     181.69082	     4676.1324	     20.000000
        567.00	     45656.800	     190.85306	     4677.2771	     20.000000
        568.00	     44144.800	     338.38571	     4678.4430	     20.003300
        569.00	     42848.800	     210.82273	     4679.6084	     20.003300
        570.00	     40436.800	     224.79225	     4680.7692	     20.003300
        571.00	     39308.800	     156.15377	     4681.8706	     20.003300
        572.00	     37548.800	     245.04331	     4683.0675	     20.000000
        573.00	     36044.800	     136.65203	     4684.2242	     19.990000
        574.00	     35060.800	     215.81885	     4685.3916	     19.990000
        575.00	     33772.800	     221.09224	     4686.5469	     19.990000
        576.00	     32544.800	     153.81952	     4687.7087	     19.990000
        577.00	     31160.800	     211.84900	     4688.8498	     19.990000
        578.00	     29640.800	     131.89221	     4690.0176	     20.000000
        579.00	     28736.800	     176.02525	     4691.1732	     20.000000
        580.00	     27576.800	     160.60441	     4692.3192	     20.000000
        581.00	     26536.800	     161.15693	     4693.4836	     20.003300
        582.00	     25292.800	     157.06191	     4694.6429	     20.003300
        583.00	     24288.800	     160.44937	     4695.7964	     20.003300
        584.00	     23384.800	     117.52257	     4696.9399	     20.000000
        585.00	     22316.800	     142.13609	     4698.0947	     20.000000
        586.00	     21320.800	     124.82877	     4699.2550	     20.000000
        587.00	     20628.800	     168.63373	     4700.3969	     20.000000
        588.00	     19516.800	     117.48475	     4701.5649	     19.990000
        589.00	     18708.800	     130.47605	     4702.6799	     19.990000
        590.00	     17880.800	     89.888820	     4703.8639	     20.000000
        591.00	     17188.800	     66.613312	     4705.0254	     20.000000
        592.00	     16728.800	     77.757458	     4706.1765	     20.000000
        593.00	     15948.800	     125.89943	     4707.3012	     20.000000
        594.00	     14904.800	     132.32284	     4708.4927	     20.000000
        595.00	     14612.800	     132.50409	     4709.6491	     20.000000
        596.00	     14060.800	     122.49263	     4710.8026	     20.000000
        597.00	     13476.800	     114.26285	     4711.9706	     20.000000
        598.00	     13040.800	     71.616261	     4713.1252	     20.000000
        599.00	     12396.800	     116.11489	     4714.2787	     20.000000
        600.00	     11908.800	     85.956061	     4715.4334	     20.000000
        601.00	     11180.800	     134.92385	     4716.5898	     20.000000
        602.00	     11096.800	     136.68455	     4717.7468	     20.000000
        603.00	     10472.800	     107.67028	     4718.9049	     20.000000
        604.00	     10132.800	     133.70615	     4720.0587	     20.000000
        605.00	     9484.8000	     99.634889	     4721.2226	     20.003300
        606.00	     9112.8000	     97.807066	     4722.3796	     20.003300
        607.00	     8880.8000	     75.247739	     4723.5305	     20.003300
        608.00	     8492.8000	     46.494922	     4724.6836	     20.003300
        609.00	     8304.8000	     134.19058	     4725.8477	     20.000000
        610.00	     7816.8000	     94.929213	     4727.0209	     20.000000
        611.00	     7656.8000	     60.059230	     4728.1664	     20.000000
        612.00	     7312.8000	     98.711701	     4729.3217	     19.990000
        613.00	     6952.8000	     74.487881	     4730.4796	     19.990000
        614.00	     6828.8000	     73.948931	     4731.6314	     20.000000
        615.00	     6388.8000	     46.494922	     4732.7555	     20.000000
        616.00	     6216.8000	     102.14587	     4733.9505	     20.000000
        617.00	     6072.8000	     46.970440	     4735.1019	     20.000000
        618.00	     5848.8000	     84.126888	     4736.2463	     20.000000
        619.00	     5520.8000	     60.295568	     4737.4192	     20.000000
        620.00	     5392.8000	     68.260937	     4738.5670	     20.000000
        621.00	     5032.8000	     99.786439	     4739.7222	     20.000000
        622.00	     5064.8000	     60.354508	     4740.8903	     20.000000
        623.00	     4888.8000	     70.060291	     4742.0482	     20.000000
        624.00	     4572.8000	     56.819402	     4743.2253	     20.000000
        625.00	     4432.8000	     64.511842	     4744.4637	     20.000000
        626.00	     4360.8000	     89.888820	     4745.6165	     20.000000
        627.00	     4212.8000	     40.353989	     4746.7907	     20.000000
        628.00	     4044.8000	     77.333333	     4747.9337	     20.000000
        629.00	     3896.8000	     78.304250	     4749.0912	     20.003300
        630.00	     3604.8000	     73.078345	     4750.2472	     20.003300
        631.00	     3556.8000	     80.044432	     4751.4068	     20.003300
        632.00	     3536.8000	     57.642577	     4752.5605	     20.000000
        633.00	     3268.8000	     81.497103	     4753.7371	     20.000000
        634.00	     3020.8000	     55.297177	     4754.9781	     20.000000
        635.00	     3028.8000	     62.196820	     4756.1324	     20.000000
        636.00	     3020.8000	     43.410188	     4757.2929	     20.000000
        637.00	     2768.8000	     53.015721	     4758.4495	     20.000000
        638.00	     2844.8000	     43.898874	     4759.5626	     20.000000
        639.00	     2612.8000	     59.269629	     4760.7471	     20.000000
        640.00	     2496.8000	     61.809744	     4761.9102	     20.000000
        641.00	     2400.8000	     59.104427	     4763.0643	     20.000000
        642.00	     2440.8000	     40.987803	     4764.2232	     20.000000
        643.00	     2248.8000	     45.431267	     4765.3636	     20.000000
        644.00	     2178.4000	     66.946081	     4766.5282	     20.000000
        645.00	     2158.4000	     42.499673	     4770.7426	     20.000000
        646.00	     2074.4000	     38.389813	     4771.8884	     20.000000
        647.00	     2018.4000	     34.279894	     4773.0480	     20.000000
        648.00	     1966.4000	     60.575022	     4774.2036	     20.000000
        649.00	     1870.4000	     35.276684	     4775.3279	     20.000000
        650.00	     1834.4000	     71.913528	     4776.5225	     20.000000
