Title=Positivo 5 - 4C (toma 3)
Comment=Rejillas de 0.5 y 1.0
Signature=ISS_Experiment_Ver_1_0
Timestamp=Wed Jul 23 15:49:54 2025
Product=Vinci 3
SoftwareVersion=RELEASE.3.2.4
BuildNumber=518
RealTimeStart=5734.0243597

AcquisitionType=Photon Counting
AcquisitionFormat=L
AcquisitionSide=Right

Measurable=Intensity
MaxIterations=10

RightEmissionWavelengthBandwidth=8.0
ExcitationWavelengthBandwidth=8.0
Visualization=Y:Intensity,X:EmissionWavelength,PlotType:2D


EmissionWavelength=type:numeric,unit:nm,from:490.0,to:650.0,step:1.0
ExcitationWavelength=type:numeric,unit:nm,fixed:470.0

Space=EmissionWavelength
Columns=EmissionWavelength,Intensity,IntensityStdError,RealTime,RealTemperature
Dark=128.0, 633.6
[Data]
        490.00	     29654.400	     135.68591	     5739.2059	     19.990000
        491.00	     40594.400	     163.84817	     5740.6739	     20.000000
        492.00	     54470.400	     222.24711	     5741.8278	     20.000000
        493.00	     70178.400	     251.08122	     5742.9773	     20.000000
        494.00	     87222.400	     347.75215	     5744.1459	     20.000000
        495.00	     104490.40	     197.80574	     5745.3048	     20.000000
        496.00	     118830.40	     1623.1788	     5746.4642	     20.000000
        497.00	     134782.40	     351.66651	     5747.5206	     20.000000
        498.00	     146854.40	     290.88677	     5748.6747	     20.000000
        499.00	     156574.40	     447.96032	     5749.8367	     20.000000
        500.00	     162842.40	     435.63287	     5750.9556	     20.000000
        501.00	     165438.40	     280.11426	     5752.1413	     20.000000
        502.00	     167950.40	     448.68994	     5753.3061	     20.000000
        503.00	     167342.40	     615.30697	     5754.4702	     20.000000
        504.00	     165654.40	     665.40681	     5755.6238	     20.000000
        505.00	     164042.40	     357.24626	     5756.7755	     19.990000
        506.00	     161630.40	     335.36448	     5757.9369	     19.990000
        507.00	     158534.40	     469.31818	     5759.0880	     19.990000
        508.00	     156046.40	     329.95623	     5760.2417	     19.990000
        509.00	     155250.40	     526.97712	     5761.4107	     19.990000
        510.00	     153318.40	     348.34466	     5762.5636	     20.000000
        511.00	     151714.40	     414.70954	     5763.7205	     20.003300
        512.00	     151290.40	     370.96631	     5764.8758	     20.000000
        513.00	     150646.40	     379.23900	     5766.0355	     20.000000
        514.00	     150086.40	     380.59602	     5767.1841	     20.000000
        515.00	     149906.40	     379.20384	     5768.3436	     20.000000
        516.00	     149086.40	     383.66652	     5769.4981	     20.000000
        517.00	     149158.40	     584.10958	     5770.6504	     20.000000
        518.00	     147626.40	     421.47888	     5771.8175	     20.000000
        519.00	     148154.40	     505.96618	     5772.9697	     20.000000
        520.00	     147702.40	     483.36598	     5774.1294	     20.000000
        521.00	     146042.40	     409.89755	     5775.2803	     20.000000
        522.00	     144998.40	     396.86774	     5776.4464	     20.000000
        523.00	     143974.40	     477.98838	     5777.5958	     20.003300
        524.00	     142050.40	     252.59190	     5778.7575	     20.000000
        525.00	     140122.40	     439.37127	     5779.9093	     20.000000
        526.00	     138526.40	     424.70382	     5781.0627	     20.000000
        527.00	     135070.40	     389.60721	     5782.1862	     20.000000
        528.00	     133214.40	     330.26858	     5783.3866	     20.000000
        529.00	     129990.40	     335.25844	     5784.5396	     20.000000
        530.00	     125990.40	     496.85947	     5785.6989	     20.000000
        531.00	     122914.40	     247.22819	     5786.8553	     20.000000
        532.00	     119418.40	     483.28689	     5788.0053	     20.003300
        533.00	     116022.40	     342.49801	     5789.1715	     20.003300
        534.00	     112654.40	     260.65217	     5790.3240	     20.000000
        535.00	     107938.40	     338.10189	     5791.5024	     20.000000
        536.00	     103750.40	     392.24482	     5792.7492	     20.000000
        537.00	     99426.400	     230.72832	     5793.8635	     20.000000
        538.00	     96338.400	     288.44718	     5795.0599	     20.000000
        539.00	     92302.400	     262.51434	     5796.2141	     20.000000
        540.00	     88350.400	     253.27719	     5797.3719	     20.000000
        541.00	     84742.400	     211.25656	     5798.5355	     20.000000
        542.00	     80666.400	     291.58570	     5799.6845	     20.000000
        543.00	     76906.400	     286.72868	     5800.8428	     20.000000
        544.00	     73574.400	     247.21021	     5801.9879	     20.000000
        545.00	     70230.400	     256.20825	     5803.1491	     20.000000
        546.00	     67170.400	     237.65147	     5804.3122	     20.000000
        547.00	     64426.400	     339.94771	     5805.4530	     20.000000
        548.00	     61074.400	     307.42226	     5806.5050	     20.000000
        549.00	     58758.400	     204.46570	     5807.6794	     20.000000
        550.00	     55506.400	     255.72555	     5808.8328	     20.000000
        551.00	     53718.400	     249.28698	     5809.9870	     20.000000
        552.00	     51270.400	     280.52015	     5811.1434	     20.000000
        553.00	     49174.400	     206.79996	     5812.2746	     20.000000
        554.00	     47058.400	     375.85103	     5813.4648	     20.000000
        555.00	     44894.400	     187.97636	     5814.6243	     20.003300
        556.00	     43102.400	     219.83428	     5815.7687	     20.003300
        557.00	     41566.400	     163.40815	     5816.9273	     20.003300
        558.00	     39946.400	     201.52750	     5818.0784	     20.000000
        559.00	     38490.400	     233.42474	     5819.2402	     20.000000
        560.00	     37066.400	     202.84641	     5820.3585	     20.000000
        561.00	     35486.400	     125.64500	     5821.5547	     20.000000
        562.00	     34226.400	     214.43466	     5822.7093	     20.000000
        563.00	     32574.400	     117.42421	     5823.8658	     20.000000
        564.00	     31846.400	     247.79920	     5825.0162	     20.000000
        565.00	     30942.400	     180.48823	     5826.1390	     20.000000
        566.00	     29394.400	     127.33857	     5827.3381	     20.000000
        567.00	     28470.400	     194.06299	     5828.4513	     20.000000
        568.00	     27230.400	     219.42956	     5829.6526	     20.000000
        569.00	     26402.400	     158.03797	     5830.7946	     20.000000
        570.00	     25046.400	     137.79211	     5831.9395	     20.000000
        571.00	     24234.400	     193.40688	     5833.0945	     20.000000
        572.00	     23266.400	     138.46781	     5834.2631	     20.000000
        573.00	     22646.400	     155.37768	     5835.4138	     20.000000
        574.00	     21618.400	     143.23873	     5836.5529	     20.000000
        575.00	     21090.400	     109.04841	     5837.7233	     20.000000
        576.00	     20082.400	     99.500977	     5838.8753	     20.000000
        577.00	     19046.400	     154.80454	     5840.0422	     20.000000
        578.00	     18154.400	     184.46800	     5841.1757	     20.003300
        579.00	     17830.400	     174.37635	     5842.3437	     20.000000
        580.00	     17058.400	     179.88144	     5843.5088	     20.000000
        581.00	     16074.400	     110.11913	     5844.6518	     20.000000
        582.00	     15422.400	     114.57361	     5845.8149	     20.000000
        583.00	     14894.400	     190.79250	     5846.9701	     20.000000
        584.00	     14354.400	     100.14212	     5848.1258	     20.000000
        585.00	     13674.400	     122.20929	     5849.2763	     20.000000
        586.00	     13058.400	     127.33857	     5850.4394	     20.000000
        587.00	     12430.400	     134.68647	     5851.5849	     20.003300
        588.00	     12338.400	     122.49989	     5852.7382	     20.000000
        589.00	     11578.400	     59.643385	     5853.9049	     20.000000
        590.00	     11010.400	     86.296646	     5855.0584	     20.000000
        591.00	     10538.400	     119.26441	     5856.2181	     20.000000
        592.00	     10154.400	     82.849261	     5857.3679	     20.000000
        593.00	     9766.4000	     104.64756	     5858.5297	     20.000000
        594.00	     9346.4000	     90.283504	     5859.6857	     20.000000
        595.00	     8962.4000	     86.090392	     5860.8475	     20.000000
        596.00	     8578.4000	     70.817449	     5861.9606	     20.000000
        597.00	     8282.4000	     78.076885	     5863.1572	     20.000000
        598.00	     7810.4000	     78.530956	     5864.3149	     20.000000
        599.00	     7610.4000	     62.096699	     5865.4582	     20.000000
        600.00	     7210.4000	     70.917793	     5866.6288	     20.000000
        601.00	     6706.4000	     109.98990	     5867.7794	     20.000000
        602.00	     6642.4000	     59.164554	     5868.9266	     20.000000
        603.00	     6418.4000	     82.634402	     5870.0770	     20.000000
        604.00	     5970.4000	     70.161718	     5871.2479	     20.003300
        605.00	     5798.4000	     71.005477	     5872.4011	     20.000000
        606.00	     5518.4000	     108.45173	     5873.5472	     20.000000
        607.00	     5318.4000	     74.666667	     5874.7190	     20.000000
        608.00	     5186.4000	     69.089314	     5875.8621	     20.000000
        609.00	     4898.4000	     59.643385	     5877.0106	     20.000000
        610.00	     4722.4000	     88.131215	     5878.1693	     20.000000
        611.00	     4438.4000	     88.603988	     5879.3315	     20.000000
        612.00	     4450.4000	     119.32402	     5880.4868	     20.000000
        613.00	     4162.4000	     54.796594	     5881.6399	     20.000000
        614.00	     3866.4000	     84.590517	     5882.8119	     20.000000
        615.00	     3918.4000	     35.175749	     5883.9706	     20.000000
        616.00	     3694.4000	     66.613312	     5885.1186	     20.000000
        617.00	     3634.4000	     74.248831	     5886.2809	     20.000000
        618.00	     3362.4000	     65.983163	     5887.4337	     20.000000
        619.00	     3386.4000	     53.416602	     5888.5994	     20.000000
        620.00	     3242.4000	     55.761396	     5889.7358	     20.000000
        621.00	     3110.4000	     56.000000	     5890.7902	     20.000000
        622.00	     2986.4000	     61.173705	     5891.9399	     20.000000
        623.00	     2742.4000	     65.374137	     5893.1040	     20.000000
        624.00	     2814.4000	     59.269629	     5894.2548	     20.000000
        625.00	     2606.4000	     73.514927	     5895.4115	     20.003300
        626.00	     2438.4000	     73.708133	     5896.5668	     20.003300
        627.00	     2370.4000	     50.754310	     5897.7336	     20.003300
        628.00	     2318.4000	     47.628190	     5898.8902	     20.003300
        629.00	     2354.4000	     70.060291	     5900.0474	     19.990000
        630.00	     2234.4000	     42.184779	     5901.1961	     19.990000
        631.00	     2142.4000	     53.065997	     5902.3586	     19.990000
        632.00	     1978.4000	     67.475098	     5903.5046	     19.990000
        633.00	     1938.4000	     66.412850	     5904.6762	     20.000000
        634.00	     1862.4000	     66.719979	     5905.8220	     20.000000
        635.00	     1822.4000	     41.397799	     5906.9825	     20.003300
        636.00	     1838.4000	     46.110977	     5908.1375	     20.003300
        637.00	     1794.4000	     54.012344	     5909.2918	     20.003300
        638.00	     1622.4000	     36.368485	     5910.4529	     20.000000
        639.00	     1490.4000	     45.975839	     5911.6091	     20.000000
        640.00	     1486.4000	     38.643671	     5912.7614	     20.000000
        641.00	     1534.4000	     44.939465	     5913.9517	     20.000000
        642.00	     1326.4000	     44.221664	     5915.1864	     20.000000
        643.00	     1302.4000	     49.243161	     5916.3316	     20.000000
        644.00	     1292.8000	     24.729649	     5917.4888	     20.000000
        645.00	     1244.8000	     32.768549	     5921.7043	     20.000000
        646.00	     1212.8000	     40.966111	     5922.8538	     20.000000
        647.00	     1172.8000	     35.377331	     5924.0039	     20.000000
        648.00	     1124.8000	     53.399958	     5925.1642	     20.000000
        649.00	     1060.8000	     41.654665	     5926.2866	     20.000000
        650.00	     1032.8000	     53.814496	     5927.4815	     20.000000
