Title=Positivo 2 - 4C
Comment=Rejillas de 0.5 y 1.0
Signature=ISS_Experiment_Ver_1_0
Timestamp=Wed Jul 23 14:39:54 2025
Product=Vinci 3
SoftwareVersion=RELEASE.3.2.4
BuildNumber=518
RealTimeStart=1534.0249966

AcquisitionType=Photon Counting
AcquisitionFormat=L
AcquisitionSide=Right

Measurable=Intensity
MaxIterations=10

RightEmissionWavelengthBandwidth=8.0
ExcitationWavelengthBandwidth=8.0
Visualization=Y:Intensity,X:EmissionWavelength,PlotType:2D


EmissionWavelength=type:numeric,unit:nm,from:490.0,to:650.0,step:1.0
ExcitationWavelength=type:numeric,unit:nm,fixed:470.0

Space=EmissionWavelength
Columns=EmissionWavelength,Intensity,IntensityStdError,RealTime,RealTemperature
Dark=89.6, 520.0
[Data]
        490.00	     440248.00	     1552.2176	     1539.2231	     19.990000
        491.00	     486184.00	     533.97295	     1540.6965	     20.000000
        492.00	     535080.00	     860.22219	     1541.8554	     19.990000
        493.00	     574964.00	     885.38654	     1543.0112	     19.990000
        494.00	     605636.00	     1107.9583	     1544.1674	     19.990000
        495.00	     626004.00	     1434.3277	     1545.3243	     19.990000
        496.00	     631992.00	     896.44830	     1546.4865	     19.990000
        497.00	     632400.00	     590.80360	     1547.6222	     19.990000
        498.00	     624444.00	     1178.7217	     1548.7889	     19.990000
        499.00	     610068.00	     1053.1823	     1549.9494	     19.990000
        500.00	     593076.00	     954.84635	     1551.0618	     19.990000
        501.00	     570728.00	     779.35130	     1552.2486	     20.000000
        502.00	     549412.00	     665.14627	     1553.3731	     19.990000
        503.00	     527144.00	     1208.5209	     1554.5658	     19.990000
        504.00	     505956.00	     376.67316	     1555.7217	     19.990000
        505.00	     487392.00	     563.38027	     1556.8808	     19.990000
        506.00	     468888.00	     804.86962	     1558.0354	     19.990000
        507.00	     456876.00	     655.27467	     1559.1575	     20.000000
        508.00	     443312.00	     992.07168	     1560.3420	     19.990000
        509.00	     433868.00	     685.21011	     1561.4952	     19.990000
        510.00	     425144.00	     553.42810	     1562.6617	     20.000000
        511.00	     418556.00	     927.34172	     1563.7746	     20.000000
        512.00	     411692.00	     681.90713	     1564.9771	     20.000000
        513.00	     407880.00	     485.70682	     1566.1432	     19.990000
        514.00	     403276.00	     729.60141	     1567.3869	     19.990000
        515.00	     399112.00	     535.12366	     1568.5439	     19.990000
        516.00	     395060.00	     860.10335	     1569.7045	     19.990000
        517.00	     392632.00	     580.59892	     1570.8453	     20.000000
        518.00	     390444.00	     645.32369	     1572.0112	     20.000000
        519.00	     386252.00	     801.28896	     1573.1168	     20.000000
        520.00	     383132.00	     660.15621	     1574.3213	     20.000000
        521.00	     380136.00	     576.40109	     1575.4662	     20.000000
        522.00	     374980.00	     404.47497	     1576.6305	     20.000000
        523.00	     370640.00	     767.28671	     1577.7795	     20.000000
        524.00	     365196.00	     556.28770	     1578.9329	     20.000000
        525.00	     360504.00	     946.89575	     1580.0906	     20.000000
        526.00	     353572.00	     921.15966	     1581.2316	     20.000000
        527.00	     347628.00	     442.78111	     1582.2825	     20.000000
        528.00	     338056.00	     432.18103	     1583.4605	     20.000000
        529.00	     331616.00	     552.88174	     1584.6154	     20.000000
        530.00	     321708.00	     718.19651	     1585.7675	     20.000000
        531.00	     315384.00	     750.75547	     1586.9202	     20.000000
        532.00	     303712.00	     512.20829	     1588.0766	     20.000000
        533.00	     296032.00	     765.44947	     1589.2318	     20.000000
        534.00	     285284.00	     820.93605	     1590.3944	     20.000000
        535.00	     276132.00	     356.72834	     1591.5413	     20.000000
        536.00	     265888.00	     551.96779	     1592.7005	     20.000000
        537.00	     257528.00	     435.36141	     1593.8654	     20.000000
        538.00	     245164.00	     416.35241	     1595.0151	     20.000000
        539.00	     236944.00	     556.47142	     1596.1677	     20.000000
        540.00	     227244.00	     462.85875	     1597.3293	     20.000000
        541.00	     217452.00	     326.49247	     1598.5040	     20.000000
        542.00	     208352.00	     584.56594	     1599.7446	     20.000000
        543.00	     200020.00	     507.97200	     1600.8589	     20.000000
        544.00	     192368.00	     236.62817	     1602.0443	     20.000000
        545.00	     183508.00	     426.87703	     1603.2140	     20.000000
        546.00	     174732.00	     343.11255	     1604.3738	     20.000000
        547.00	     167548.00	     339.98954	     1605.5273	     20.000000
        548.00	     159668.00	     342.69779	     1606.6703	     20.000000
        549.00	     153508.00	     503.74773	     1607.8318	     20.000000
        550.00	     146080.00	     495.45490	     1608.9887	     20.000000
        551.00	     139372.00	     424.83147	     1610.1419	     20.003300
        552.00	     133600.00	     302.34638	     1611.3087	     20.000000
        553.00	     129504.00	     398.58416	     1612.4608	     20.000000
        554.00	     123300.00	     341.51297	     1613.6148	     20.000000
        555.00	     118512.00	     311.60088	     1614.7742	     20.003300
        556.00	     113728.00	     254.71902	     1615.9414	     20.003300
        557.00	     109500.00	     406.88519	     1617.0785	     20.000000
        558.00	     104932.00	     346.66923	     1618.2454	     20.003300
        559.00	     100864.00	     241.78595	     1619.4117	     20.003300
        560.00	     96588.000	     505.40369	     1620.5619	     20.003300
        561.00	     93012.000	     350.34206	     1621.7083	     20.003300
        562.00	     89900.000	     352.88021	     1622.8666	     20.000000
        563.00	     86056.000	     275.14521	     1624.0229	     20.000000
        564.00	     82576.000	     385.89348	     1625.1849	     20.000000
        565.00	     80160.000	     346.15347	     1626.3453	     20.003300
        566.00	     76808.000	     290.70336	     1627.4943	     20.003300
        567.00	     74540.000	     291.34172	     1628.6404	     20.003300
        568.00	     71160.000	     280.88748	     1629.8049	     20.000000
        569.00	     68732.000	     325.78384	     1630.9649	     20.003300
        570.00	     66168.000	     223.01370	     1632.1205	     20.003300
        571.00	     63928.000	     343.25501	     1633.2812	     20.003300
        572.00	     60812.000	     193.95761	     1634.4395	     20.003300
        573.00	     58492.000	     246.07497	     1635.5934	     20.003300
        574.00	     56620.000	     238.53255	     1636.7438	     20.003300
        575.00	     54364.000	     215.44373	     1637.9018	     20.003300
        576.00	     51832.000	     258.39161	     1639.0584	     20.003300
        577.00	     50116.000	     117.52257	     1640.1737	     20.003300
        578.00	     47836.000	     180.61131	     1641.3608	     20.003300
        579.00	     46144.000	     245.94128	     1642.5118	     20.003300
        580.00	     43888.000	     152.23374	     1643.6713	     20.003300
        581.00	     41892.000	     258.40881	     1644.8392	     20.003300
        582.00	     40472.000	     178.06865	     1645.9952	     20.003300
        583.00	     38828.000	     151.09085	     1647.1532	     20.003300
        584.00	     37132.000	     180.37492	     1648.3050	     20.003300
        585.00	     35168.000	     256.18049	     1649.4727	     20.003300
        586.00	     34032.000	     196.39416	     1650.6178	     20.003300
        587.00	     32488.000	     192.27758	     1651.7787	     20.003300
        588.00	     31084.000	     190.29334	     1652.9201	     20.003300
        589.00	     29984.000	     197.96296	     1654.0940	     20.003300
        590.00	     28304.000	     183.22542	     1655.2359	     20.003300
        591.00	     27348.000	     136.76257	     1656.3623	     20.003300
        592.00	     26136.000	     140.75353	     1657.5633	     20.006600
        593.00	     24600.000	     116.23731	     1658.7088	     20.003300
        594.00	     24004.000	     141.79171	     1659.8508	     20.003300
        595.00	     22908.000	     156.18223	     1660.8840	     20.003300
        596.00	     21536.000	     109.00764	     1662.0694	     20.003300
        597.00	     20800.000	     152.02339	     1663.2226	     20.003300
        598.00	     19952.000	     198.82320	     1664.3781	     20.003300
        599.00	     19068.000	     165.36021	     1665.5503	     20.003300
        600.00	     18136.000	     150.51910	     1666.7005	     20.003300
        601.00	     17504.000	     162.33847	     1667.8555	     20.003300
        602.00	     16744.000	     118.53926	     1669.0016	     20.003300
        603.00	     16256.000	     127.35951	     1670.1701	     20.003300
        604.00	     15396.000	     77.390783	     1671.3286	     20.003300
        605.00	     14316.000	     120.65746	     1672.4701	     20.003300
        606.00	     13668.000	     119.85918	     1673.6362	     20.006600
        607.00	     13256.000	     154.13702	     1674.7831	     20.010000
        608.00	     12892.000	     124.94265	     1675.9510	     20.010000
        609.00	     12236.000	     114.92220	     1677.0989	     20.006600
        610.00	     11812.000	     71.566597	     1678.2482	     20.006600
        611.00	     11380.000	     65.929255	     1679.4004	     20.003300
        612.00	     10768.000	     102.03267	     1680.5645	     20.003300
        613.00	     10296.000	     109.00764	     1681.7208	     20.003300
        614.00	     10148.000	     114.55033	     1682.8763	     20.006600
        615.00	     9856.0000	     108.35333	     1684.0302	     20.003300
        616.00	     9356.0000	     88.332704	     1685.1934	     20.003300
        617.00	     8960.0000	     131.31810	     1686.3429	     20.003300
        618.00	     8580.0000	     79.610161	     1687.5006	     20.003300
        619.00	     8244.0000	     99.322147	     1688.6580	     20.003300
        620.00	     7968.0000	     78.610149	     1689.7998	     20.003300
        621.00	     7608.0000	     67.934609	     1690.8391	     20.003300
        622.00	     7432.0000	     65.537097	     1692.0385	     20.003300
        623.00	     6940.0000	     91.457337	     1693.1876	     20.003300
        624.00	     6676.0000	     80.982851	     1694.3235	     20.003300
        625.00	     6456.0000	     78.247471	     1695.4484	     20.003300
        626.00	     6244.0000	     57.022413	     1696.6471	     20.003300
        627.00	     5972.0000	     62.836649	     1697.7970	     20.003300
        628.00	     5784.0000	     54.061693	     1698.9548	     20.003300
        629.00	     5432.0000	     35.175749	     1700.1148	     20.003300
        630.00	     5288.0000	     90.391740	     1701.2690	     20.003300
        631.00	     5152.0000	     56.819402	     1702.4205	     20.003300
        632.00	     4876.0000	     55.441661	     1703.5575	     20.003300
        633.00	     4608.0000	     75.141348	     1704.7139	     20.003300
        634.00	     4488.0000	     85.541413	     1705.8671	     20.006600
        635.00	     4348.0000	     71.566597	     1707.0174	     20.006600
        636.00	     4176.0000	     54.061693	     1708.0831	     20.006600
        637.00	     3964.0000	     50.754310	     1709.2229	     20.003300
        638.00	     3776.0000	     84.158580	     1710.3796	     20.006600
        639.00	     3632.0000	     54.585305	     1711.5540	     20.006600
        640.00	     3520.0000	     44.221664	     1712.7077	     20.003300
        641.00	     3380.0000	     70.111023	     1713.8235	     20.006600
        642.00	     3224.0000	     54.061693	     1715.0256	     20.006600
        643.00	     3140.0000	     79.833159	     1716.1749	     20.006600
        644.00	     2912.8000	     63.512029	     1717.3151	     20.003300
        645.00	     2940.8000	     44.141188	     1721.5245	     20.003300
        646.00	     2652.8000	     73.321211	     1722.6885	     20.006600
        647.00	     2752.8000	     53.814496	     1723.8626	     20.006600
        648.00	     2532.8000	     60.575022	     1725.0304	     20.006600
        649.00	     2436.8000	     58.057443	     1726.2713	     20.006600
        650.00	     2400.8000	     37.261836	     1727.4240	     20.010000
