Title=Positivo 10 - 4C (toma 2)
Comment=Rejillas de 0.5 y 1.0
Signature=ISS_Experiment_Ver_1_0
Timestamp=Wed Jul 23 14:47:04 2025
Product=Vinci 3
SoftwareVersion=RELEASE.3.2.4
BuildNumber=518
RealTimeStart=1964.4072599

AcquisitionType=Photon Counting
AcquisitionFormat=L
AcquisitionSide=Right

Measurable=Intensity
MaxIterations=10

RightEmissionWavelengthBandwidth=8.0
ExcitationWavelengthBandwidth=8.0
Visualization=Y:Intensity,X:EmissionWavelength,PlotType:2D


EmissionWavelength=type:numeric,unit:nm,from:490.0,to:650.0,step:1.0
ExcitationWavelength=type:numeric,unit:nm,fixed:470.0

Space=EmissionWavelength
Columns=EmissionWavelength,Intensity,IntensityStdError,RealTime,RealTemperature
Dark=96.0, 515.2
[Data]
        490.00	     37368.800	     273.86615	     1969.6559	     20.010000
        491.00	     49776.800	     249.94577	     1971.0844	     20.013300
        492.00	     65404.800	     257.57847	     1972.2786	     20.026600
        493.00	     83484.800	     329.03900	     1973.3896	     20.013300
        494.00	     103940.80	     215.91768	     1974.5864	     20.013300
        495.00	     125748.80	     366.47025	     1975.7008	     20.013300
        496.00	     144300.80	     514.47319	     1976.8999	     20.013300
        497.00	     164852.80	     366.35381	     1978.0556	     20.013300
        498.00	     179232.80	     591.52684	     1979.2015	     20.013300
        499.00	     191468.80	     353.73311	     1980.3651	     20.010000
        500.00	     200264.80	     418.55837	     1981.5126	     20.010000
        501.00	     206764.80	     345.02174	     1982.6756	     20.010000
        502.00	     208452.80	     506.62456	     1983.8288	     20.013300
        503.00	     210508.80	     530.26450	     1984.9874	     20.013300
        504.00	     209284.80	     422.39529	     1986.1355	     20.010000
        505.00	     207368.80	     443.59942	     1987.2881	     20.010000
        506.00	     205252.80	     387.16290	     1988.4420	     20.013300
        507.00	     202236.80	     651.91138	     1989.5998	     20.010000
        508.00	     199832.80	     454.82304	     1990.7694	     20.010000
        509.00	     198284.80	     647.56638	     1991.9123	     20.013300
        510.00	     196608.80	     434.73415	     1993.0752	     20.013300
        511.00	     196348.80	     675.01967	     1994.2178	     20.013300
        512.00	     193448.80	     556.86264	     1995.3742	     20.013300
        513.00	     193600.80	     596.17894	     1996.5269	     20.013300
        514.00	     192476.80	     544.57486	     1997.6904	     20.013300
        515.00	     192444.80	     479.40704	     1998.8633	     20.013300
        516.00	     191252.80	     535.48898	     2000.0101	     20.013300
        517.00	     191096.80	     525.57862	     2001.1517	     20.013300
        518.00	     189636.80	     245.18836	     2002.3270	     20.013300
        519.00	     189588.80	     493.80878	     2003.4743	     20.013300
        520.00	     188196.80	     289.66187	     2004.6282	     20.013300
        521.00	     188376.80	     383.34435	     2005.7832	     20.013300
        522.00	     187248.80	     606.20349	     2006.9551	     20.013300
        523.00	     184412.80	     715.08943	     2008.1044	     20.013300
        524.00	     182288.80	     346.43325	     2009.2200	     20.013300
        525.00	     180492.80	     359.34756	     2010.4065	     20.013300
        526.00	     176952.80	     330.01279	     2011.5727	     20.013300
        527.00	     174752.80	     391.69376	     2012.7313	     20.013300
        528.00	     169944.80	     440.53503	     2013.8846	     20.013300
        529.00	     167124.80	     428.24707	     2014.9994	     20.013300
        530.00	     162532.80	     342.11369	     2016.1980	     20.026600
        531.00	     158284.80	     432.87155	     2017.3664	     20.026600
        532.00	     153336.80	     336.09787	     2018.5101	     20.013300
        533.00	     148604.80	     395.97980	     2019.6732	     20.026600
        534.00	     143528.80	     508.57360	     2020.8267	     20.026600
        535.00	     138672.80	     350.18979	     2021.9899	     20.026600
        536.00	     133448.80	     308.65731	     2023.1324	     20.026600
        537.00	     128292.80	     208.42691	     2024.3004	     20.026600
        538.00	     123992.80	     244.91631	     2025.4599	     20.026600
        539.00	     118996.80	     415.72641	     2026.6084	     20.026600
        540.00	     113508.80	     340.51986	     2027.7736	     20.026600
        541.00	     108988.80	     651.84047	     2028.9209	     20.026600
        542.00	     104116.80	     432.86333	     2029.9693	     20.026600
        543.00	     100180.80	     298.45230	     2031.1288	     20.026600
        544.00	     95608.800	     221.06409	     2032.2821	     20.020000
        545.00	     91244.800	     311.66934	     2033.4362	     20.020000
        546.00	     87044.800	     353.22011	     2034.5925	     20.020000
        547.00	     83212.800	     308.96530	     2035.7465	     20.026600
        548.00	     79352.800	     413.46450	     2036.9063	     20.026600
        549.00	     76200.800	     326.51425	     2038.0785	     20.020000
        550.00	     72652.800	     233.98386	     2039.2424	     20.020000
        551.00	     69604.800	     219.08902	     2040.3976	     20.026600
        552.00	     66608.800	     313.74158	     2041.5622	     20.020000
        553.00	     62980.800	     320.45523	     2042.7104	     20.020000
        554.00	     61012.800	     266.38652	     2043.8714	     20.020000
        555.00	     58792.800	     270.18019	     2045.0075	     20.020000
        556.00	     56192.800	     290.29028	     2046.0601	     20.020000
        557.00	     54040.800	     192.24521	     2047.1795	     20.020000
        558.00	     52360.800	     286.55502	     2048.3716	     20.020000
        559.00	     50128.800	     304.83219	     2049.5391	     20.020000
        560.00	     48124.800	     122.20202	     2050.7068	     20.020000
        561.00	     46144.800	     187.16600	     2051.8675	     20.020000
        562.00	     44472.800	     160.22762	     2053.0125	     20.020000
        563.00	     42884.800	     189.97076	     2054.1543	     20.020000
        564.00	     41564.800	     209.54978	     2055.3204	     20.020000
        565.00	     40012.800	     203.94335	     2056.3701	     20.020000
        566.00	     38548.800	     219.18637	     2057.5366	     20.020000
        567.00	     36984.800	     150.28861	     2058.6859	     20.020000
        568.00	     35692.800	     98.305646	     2059.8406	     20.020000
        569.00	     34492.800	     225.15575	     2060.9964	     20.020000
        570.00	     32960.800	     198.16491	     2062.1537	     20.020000
        571.00	     31840.800	     263.34262	     2063.3057	     20.020000
        572.00	     30480.800	     109.21131	     2064.4698	     20.020000
        573.00	     29564.800	     198.48314	     2065.6366	     20.020000
        574.00	     28504.800	     276.69478	     2066.7981	     20.020000
        575.00	     27068.800	     188.39203	     2067.9498	     20.020000
        576.00	     25972.800	     199.26978	     2069.1063	     20.020000
        577.00	     25168.800	     185.94623	     2070.2639	     20.033300
        578.00	     23936.800	     192.76238	     2071.4152	     20.033300
        579.00	     23128.800	     137.07419	     2072.5777	     20.020000
        580.00	     22128.800	     134.45528	     2073.7269	     20.033300
        581.00	     21200.800	     183.54049	     2074.8893	     20.033300
        582.00	     20200.800	     207.02764	     2076.0438	     20.020000
        583.00	     19468.800	     101.22802	     2077.1996	     20.020000
        584.00	     18636.800	     183.76797	     2078.3497	     20.020000
        585.00	     17924.800	     145.69374	     2079.5091	     20.033300
        586.00	     17208.800	     165.61803	     2080.6777	     20.020000
        587.00	     16604.800	     147.75355	     2081.8305	     20.033300
        588.00	     15696.800	     116.24495	     2082.9883	     20.033300
        589.00	     15180.800	     89.680916	     2084.1417	     20.033300
        590.00	     14484.800	     151.43756	     2085.2974	     20.033300
        591.00	     14036.800	     188.91974	     2086.4465	     20.033300
        592.00	     13188.800	     177.70888	     2087.6142	     20.033300
        593.00	     12796.800	     131.01993	     2088.7749	     20.033300
        594.00	     12280.800	     79.654811	     2089.9217	     20.033300
        595.00	     11736.800	     129.82724	     2091.0769	     20.033300
        596.00	     11216.800	     83.277315	     2092.2222	     20.036600
        597.00	     10752.800	     77.068512	     2093.3758	     20.036600
        598.00	     10196.800	     136.86003	     2094.5464	     20.033300
        599.00	     9744.8000	     113.33333	     2095.6936	     20.036600
        600.00	     9468.8000	     85.624503	     2096.8455	     20.036600
        601.00	     8744.8000	     83.106358	     2097.9972	     20.036600
        602.00	     8812.8000	     64.992307	     2099.1645	     20.036600
        603.00	     8304.8000	     66.466366	     2100.3278	     20.036600
        604.00	     7848.8000	     89.333333	     2101.4805	     20.036600
        605.00	     7556.8000	     111.52279	     2102.6245	     20.036600
        606.00	     7300.8000	     121.50171	     2103.7895	     20.030000
        607.00	     6972.8000	     87.391838	     2104.9452	     20.030000
        608.00	     6828.8000	     75.941498	     2106.0985	     20.036600
        609.00	     6416.8000	     63.118935	     2107.2553	     20.030000
        610.00	     6208.8000	     111.14755	     2108.4168	     20.030000
        611.00	     5944.8000	     104.69002	     2109.5665	     20.030000
        612.00	     5716.8000	     98.305646	     2110.7280	     20.030000
        613.00	     5592.8000	     60.530984	     2111.8850	     20.030000
        614.00	     5320.8000	     95.303025	     2113.0424	     20.030000
        615.00	     5112.8000	     94.666667	     2114.2059	     20.040000
        616.00	     4908.8000	     105.35865	     2115.3506	     20.030000
        617.00	     4656.8000	     58.133945	     2116.5136	     20.030000
        618.00	     4552.8000	     90.046901	     2117.6680	     20.030000
        619.00	     4324.8000	     63.665794	     2118.8233	     20.030000
        620.00	     4192.8000	     68.779842	     2119.9672	     20.030000
        621.00	     4000.8000	     69.397406	     2121.1254	     20.030000
        622.00	     3928.8000	     63.231497	     2122.2808	     20.030000
        623.00	     3692.8000	     83.223928	     2123.4386	     20.040000
        624.00	     3676.8000	     41.654665	     2124.5932	     20.040000
        625.00	     3476.8000	     60.457515	     2125.7520	     20.040000
        626.00	     3396.8000	     72.980972	     2126.8748	     20.043300
        627.00	     3340.8000	     59.389487	     2128.0754	     20.040000
        628.00	     3076.8000	     54.585305	     2129.2335	     20.040000
        629.00	     2980.8000	     55.681635	     2130.3783	     20.040000
        630.00	     2812.8000	     66.879660	     2131.5501	     20.043300
        631.00	     2820.8000	     86.245129	     2132.8002	     20.043300
        632.00	     2664.8000	     47.046077	     2133.9500	     20.043300
        633.00	     2448.8000	     46.360903	     2135.1072	     20.043300
        634.00	     2428.8000	     57.255761	     2136.2637	     20.043300
        635.00	     2348.8000	     68.818602	     2137.4268	     20.043300
        636.00	     2180.8000	     62.879073	     2138.5790	     20.043300
        637.00	     2296.8000	     40.463976	     2139.7443	     20.043300
        638.00	     2112.8000	     45.820907	     2140.8966	     20.043300
        639.00	     2032.8000	     53.349997	     2142.0521	     20.043300
        640.00	     1952.8000	     58.438952	     2143.1963	     20.043300
        641.00	     1908.8000	     47.027179	     2144.3523	     20.043300
        642.00	     1784.8000	     56.332347	     2145.5086	     20.043300
        643.00	     1644.8000	     49.170904	     2146.6723	     20.043300
        644.00	     1691.2000	     41.825032	     2147.8157	     20.043300
        645.00	     1675.2000	     35.175749	     2152.0213	     20.046600
        646.00	     1511.2000	     44.800794	     2153.1785	     20.046600
        647.00	     1519.2000	     46.590414	     2154.3340	     20.046600
        648.00	     1371.2000	     27.455014	     2155.5025	     20.046600
        649.00	     1387.2000	     45.801504	     2156.6534	     20.046600
        650.00	     1367.2000	     29.363621	     2157.8089	     20.050000
