Title=Segunda curva de espectro Muestra scon CCCP
Comment=
Signature=ISS_Experiment_Ver_1_0
Timestamp=Wed Sep  3 12:56:24 2025
Product=Vinci 3
SoftwareVersion=RELEASE.3.2.4
BuildNumber=518
RealTimeStart=2983.2064533

AcquisitionType=Photon Counting
AcquisitionFormat=L
AcquisitionSide=Right

Measurable=Intensity
MaxIterations=10

RightEmissionWavelengthBandwidth=8.0
ExcitationWavelengthBandwidth=8.0
Visualization=Y:Intensity,X:EmissionWavelength,PlotType:2D


EmissionWavelength=type:numeric,unit:nm,from:500.0,to:600.0,step:1.0
ExcitationWavelength=type:numeric,unit:nm,fixed:470.0

Space=EmissionWavelength
Columns=EmissionWavelength,Intensity,IntensityStdError,RealTime,RealTemperature
Dark=92.8, 553.6
[Data]
        500.00	     682706.40	     1487.7903	     2986.0572	     20.366600
        501.00	     667270.40	     908.15956	     2987.5655	     20.366600
        502.00	     639986.40	     820.41182	     2988.7104	     20.366600
        503.00	     620162.40	     1481.3861	     2989.8471	     20.366600
        504.00	     592234.40	     738.91332	     2990.9839	     20.366600
        505.00	     571410.40	     875.95941	     2992.1604	     20.366600
        506.00	     550842.40	     771.57156	     2993.3397	     20.366600
        507.00	     531070.40	     763.43551	     2994.4854	     20.366600
        508.00	     516894.40	     797.43589	     2995.6509	     20.370000
        509.00	     503806.40	     819.34391	     2996.8112	     20.370000
        510.00	     491518.40	     1188.2207	     2997.9625	     20.370000
        511.00	     483466.40	     911.26774	     2999.1189	     20.370000
        512.00	     476738.40	     816.01852	     3000.2730	     20.370000
        513.00	     469058.40	     974.72138	     3001.3908	     20.370000
        514.00	     464706.40	     557.11160	     3002.5893	     20.370000
        515.00	     461862.40	     572.71905	     3003.7022	     20.370000
        516.00	     456810.40	     809.55296	     3004.8982	     20.370000
        517.00	     454058.40	     893.95103	     3006.0601	     20.370000
        518.00	     451242.40	     925.94120	     3007.2037	     20.370000
        519.00	     447090.40	     584.92013	     3008.3576	     20.370000
        520.00	     444778.40	     397.41610	     3009.5260	     20.370000
        521.00	     442022.40	     985.44429	     3010.6645	     20.370000
        522.00	     436162.40	     888.41332	     3011.8285	     20.373300
        523.00	     432906.40	     1204.5580	     3012.9940	     20.373300
        524.00	     430090.40	     673.94560	     3014.1445	     20.373300
        525.00	     424342.40	     397.69111	     3015.2980	     20.373300
        526.00	     416414.40	     971.53807	     3016.4549	     20.373300
        527.00	     409570.40	     870.33991	     3017.6127	     20.373300
        528.00	     401550.40	     488.12385	     3018.7724	     20.373300
        529.00	     393278.40	     818.36259	     3019.8752	     20.373300
        530.00	     382910.40	     671.87830	     3021.0743	     20.386600
        531.00	     374562.40	     777.08172	     3022.2427	     20.386600
        532.00	     363430.40	     581.83465	     3023.3874	     20.386600
        533.00	     354886.40	     619.24685	     3024.5479	     20.386600
        534.00	     343614.40	     496.59463	     3025.7075	     20.386600
        535.00	     334162.40	     634.43273	     3026.8610	     20.386600
        536.00	     322062.40	     807.01811	     3028.0130	     20.386600
        537.00	     311722.40	     729.30896	     3029.1858	     20.386600
        538.00	     298930.40	     502.56055	     3030.3303	     20.386600
        539.00	     286746.40	     438.79633	     3031.4896	     20.386600
        540.00	     275450.40	     696.26176	     3032.6449	     20.380000
        541.00	     264814.40	     559.19943	     3033.8036	     20.380000
        542.00	     252998.40	     891.15755	     3034.9634	     20.380000
        543.00	     243166.40	     548.58201	     3036.1115	     20.380000
        544.00	     230858.40	     436.55418	     3037.2729	     20.380000
        545.00	     223126.40	     604.98668	     3038.4238	     20.380000
        546.00	     212674.40	     625.36176	     3039.5810	     20.380000
        547.00	     204154.40	     528.81587	     3040.7422	     20.380000
        548.00	     195234.40	     535.03229	     3041.8881	     20.380000
        549.00	     186106.40	     599.77033	     3043.0507	     20.380000
        550.00	     177518.40	     578.32863	     3044.2105	     20.380000
        551.00	     171886.40	     490.55071	     3045.3672	     20.380000
        552.00	     164518.40	     455.36017	     3046.5291	     20.380000
        553.00	     157218.40	     457.47325	     3047.6821	     20.380000
        554.00	     150246.40	     309.37931	     3048.8459	     20.393300
        555.00	     144646.40	     648.25235	     3050.0058	     20.393300
        556.00	     138510.40	     441.41993	     3051.1536	     20.396600
        557.00	     133866.40	     510.97293	     3052.3102	     20.393300
        558.00	     127938.40	     331.35681	     3053.4639	     20.393300
        559.00	     123298.40	     472.57404	     3054.6203	     20.393300
        560.00	     118766.40	     267.66480	     3055.7771	     20.396600
        561.00	     113402.40	     451.74034	     3056.9461	     20.396600
        562.00	     109438.40	     378.66667	     3058.0936	     20.396600
        563.00	     105498.40	     422.31321	     3059.1998	     20.396600
        564.00	     101738.40	     462.03607	     3060.3848	     20.396600
        565.00	     98062.400	     461.65692	     3061.5437	     20.396600
        566.00	     94482.400	     217.66029	     3062.6988	     20.396600
        567.00	     91490.400	     377.80418	     3063.8420	     20.396600
        568.00	     87758.400	     389.13237	     3065.0075	     20.396600
        569.00	     83778.400	     285.78469	     3066.1508	     20.396600
        570.00	     80798.400	     258.25397	     3067.3210	     20.390000
        571.00	     77722.400	     301.60754	     3068.4759	     20.390000
        572.00	     74906.400	     262.65313	     3069.6295	     20.390000
        573.00	     72782.400	     271.17522	     3070.7991	     20.390000
        574.00	     69638.400	     234.89383	     3071.9442	     20.390000
        575.00	     66786.400	     218.29643	     3073.1054	     20.390000
        576.00	     64066.400	     266.74999	     3074.2628	     20.390000
        577.00	     62042.400	     164.21666	     3075.4247	     20.400000
        578.00	     59954.400	     473.73879	     3076.5593	     20.400000
        579.00	     57378.400	     281.96454	     3077.6114	     20.400000
        580.00	     54578.400	     201.86244	     3078.7375	     20.400000
        581.00	     52534.400	     231.92336	     3079.9225	     20.400000
        582.00	     50342.400	     255.09562	     3081.0936	     20.400000
        583.00	     48350.400	     419.87088	     3082.2364	     20.400000
        584.00	     46282.400	     258.16102	     3083.3108	     20.400000
        585.00	     43990.400	     216.98541	     3084.4645	     20.400000
        586.00	     42210.400	     293.60291	     3085.6223	     20.400000
        587.00	     40566.400	     213.91587	     3086.7797	     20.403300
        588.00	     39154.400	     78.666667	     3087.9225	     20.403300
        589.00	     36782.400	     185.15579	     3089.0378	     20.403300
        590.00	     35550.400	     204.58739	     3090.2318	     20.403300
        591.00	     33826.400	     201.52750	     3091.3533	     20.403300
        592.00	     32334.400	     106.46648	     3092.5488	     20.403300
        593.00	     31106.400	     204.76545	     3093.7025	     20.403300
        594.00	     29862.400	     193.60441	     3094.8642	     20.406600
        595.00	     28622.400	     71.851699	     3096.0085	     20.403300
        596.00	     26986.400	     168.68116	     3097.1698	     20.403300
        597.00	     25990.400	     279.18612	     3098.3344	     20.406600
        598.00	     24622.400	     159.13097	     3099.4776	     20.406600
        599.00	     23994.400	     166.11107	     3100.6424	     20.406600
        600.00	     22646.400	     172.51087	     3101.7824	     20.406600
