Title=01 Espectro sin ccp
Comment=
Signature=ISS_Experiment_Ver_1_0
Timestamp=Fri Sep 12 13:24:53 2025
Product=Vinci 3
SoftwareVersion=RELEASE.3.2.4
BuildNumber=518
RealTimeStart=392.6505804

AcquisitionType=Photon Counting
AcquisitionFormat=L
AcquisitionSide=Right

Measurable=Intensity
MaxIterations=10

RightEmissionWavelengthBandwidth=8.0
ExcitationWavelengthBandwidth=8.0
Visualization=Y:Intensity,X:EmissionWavelength,PlotType:2D


EmissionWavelength=type:numeric,unit:nm,from:500.0,to:600.0,step:1.0
ExcitationWavelength=type:numeric,unit:nm,fixed:470.0

Space=EmissionWavelength
Columns=EmissionWavelength,Intensity,IntensityStdError,RealTime,RealTemperature
Dark=89.6, 496.0
[Data]
        500.00	     13740.000	     131.10810	     403.67897	     19.660000
        501.00	     13948.000	     74.583287	     405.19610	     19.660000
        502.00	     14076.000	     157.65504	     406.35488	     19.660000
        503.00	     14168.000	     179.30235	     407.47095	     19.660000
        504.00	     14296.000	     235.95103	     408.66339	     19.660000
        505.00	     14224.000	     79.330532	     409.81967	     19.660000
        506.00	     14332.000	     62.836649	     410.97736	     19.660000
        507.00	     13972.000	     100.31949	     412.13441	     19.660000
        508.00	     13768.000	     111.26745	     413.29710	     19.660000
        509.00	     13604.000	     103.83748	     414.46333	     19.660000
        510.00	     13252.000	     136.37204	     415.62153	     19.673300
        511.00	     13088.000	     142.26111	     416.76010	     19.673300
        512.00	     12960.000	     115.80827	     417.92436	     19.673300
        513.00	     12636.000	     88.854438	     419.08178	     19.673300
        514.00	     12332.000	     97.077289	     420.24143	     19.673300
        515.00	     11984.000	     114.54257	     421.39621	     19.673300
        516.00	     11608.000	     129.57366	     422.55528	     19.673300
        517.00	     11392.000	     131.42636	     423.70089	     19.676600
        518.00	     11080.000	     151.57836	     424.85681	     19.676600
        519.00	     11032.000	     137.50798	     426.01281	     19.676600
        520.00	     10540.000	     106.07335	     427.17253	     19.676600
        521.00	     10532.000	     140.22839	     428.28834	     19.676600
        522.00	     10368.000	     124.96399	     429.48452	     19.676600
        523.00	     9920.0000	     175.49422	     430.64120	     19.676600
        524.00	     9588.0000	     65.713181	     431.75664	     19.676600
        525.00	     9492.0000	     81.114460	     432.96174	     19.670000
        526.00	     9172.0000	     95.041511	     434.10856	     19.670000
        527.00	     9016.0000	     95.554522	     435.25181	     19.670000
        528.00	     8816.0000	     98.486322	     436.37593	     19.670000
        529.00	     8576.0000	     93.485590	     437.57257	     19.670000
        530.00	     8216.0000	     98.124637	     438.72419	     19.670000
        531.00	     8140.0000	     113.99025	     439.88425	     19.680000
        532.00	     7812.0000	     142.11732	     441.05333	     19.680000
        533.00	     7736.0000	     117.42421	     442.20854	     19.680000
        534.00	     7396.0000	     107.17379	     443.36272	     19.680000
        535.00	     7336.0000	     84.915644	     444.51977	     19.683300
        536.00	     7040.0000	     107.52984	     445.67103	     19.683300
        537.00	     6532.0000	     88.050491	     446.82565	     19.683300
        538.00	     6612.0000	     66.412850	     447.98369	     19.683300
        539.00	     6228.0000	     81.856243	     449.14732	     19.686600
        540.00	     5964.0000	     63.735565	     450.30033	     19.686600
        541.00	     5884.0000	     62.609903	     451.45666	     19.686600
        542.00	     5600.0000	     80.927951	     452.61825	     19.686600
        543.00	     5372.0000	     111.56264	     453.76478	     19.686600
        544.00	     5244.0000	     71.864069	     454.92477	     19.686600
        545.00	     5036.0000	     69.294861	     456.08341	     19.686600
        546.00	     4872.0000	     71.504468	     457.24042	     19.686600
        547.00	     4752.0000	     51.914460	     458.40332	     19.690000
        548.00	     4492.0000	     91.418452	     459.55101	     19.690000
        549.00	     4400.0000	     79.598995	     460.71195	     19.690000
        550.00	     4112.0000	     54.258640	     461.86183	     19.690000
        551.00	     4068.0000	     66.786559	     463.01833	     19.690000
        552.00	     3792.0000	     59.568821	     464.17824	     19.690000
        553.00	     3732.0000	     64.235677	     465.34787	     19.690000
        554.00	     3444.0000	     78.937387	     466.50091	     19.690000
        555.00	     3504.0000	     48.442406	     467.64272	     19.690000
        556.00	     3392.0000	     49.098540	     468.77722	     19.690000
        557.00	     3176.0000	     79.509608	     469.96243	     19.690000
        558.00	     3104.0000	     61.391277	     471.13665	     19.690000
        559.00	     3016.0000	     51.570879	     472.28295	     19.690000
        560.00	     2872.0000	     57.441758	     473.44640	     19.690000
        561.00	     2880.0000	     67.514607	     474.61957	     19.690000
        562.00	     2672.0000	     43.736585	     475.86836	     19.690000
        563.00	     2584.0000	     63.104851	     477.01879	     19.693300
        564.00	     2488.0000	     26.127891	     478.17854	     19.693300
        565.00	     2444.0000	     64.291005	     479.33493	     19.693300
        566.00	     2384.0000	     59.029183	     480.46307	     19.693300
        567.00	     2248.0000	     49.602867	     481.65216	     19.706600
        568.00	     2120.0000	     60.280824	     482.80829	     19.706600
        569.00	     2244.0000	     56.960025	     483.92591	     19.706600
        570.00	     2176.0000	     53.266625	     485.12325	     19.706600
        571.00	     1976.0000	     54.258640	     486.23833	     19.706600
        572.00	     2020.0000	     43.594087	     487.43807	     19.706600
        573.00	     1912.0000	     38.551553	     488.59755	     19.706600
        574.00	     1872.0000	     68.715193	     489.76078	     19.706600
        575.00	     1736.0000	     58.968918	     490.90932	     19.706600
        576.00	     1704.0000	     40.879226	     492.07065	     19.706600
        577.00	     1744.0000	     45.411697	     493.21627	     19.700000
        578.00	     1564.0000	     49.620784	     494.33947	     19.700000
        579.00	     1556.0000	     49.906579	     495.53347	     19.700000
        580.00	     1620.0000	     47.121592	     496.68838	     19.700000
        581.00	     1456.0000	     34.666667	     497.81553	     19.700000
        582.00	     1520.0000	     33.836207	     499.00352	     19.700000
        583.00	     1392.0000	     45.723809	     500.05757	     19.700000
        584.00	     1352.0000	     36.660606	     501.21167	     19.700000
        585.00	     1372.0000	     47.721414	     502.36811	     19.700000
        586.00	     1304.0000	     44.621868	     503.47802	     19.700000
        587.00	     1192.0000	     30.287511	     504.68715	     19.700000
        588.00	     1156.0000	     31.580585	     505.84505	     19.700000
        589.00	     1140.0000	     36.000000	     506.96437	     19.700000
        590.00	     1092.0000	     28.000000	     508.16315	     19.713300
        591.00	     1084.0000	     35.402448	     509.31650	     19.713300
        592.00	     1112.0000	     36.172427	     510.46181	     19.713300
        593.00	     1012.0000	     35.301873	     511.62281	     19.713300
        594.00	     1008.0000	     38.735571	     512.77623	     19.713300
        595.00	     952.00000	     25.854293	     513.89934	     19.713300
        596.00	     972.00000	     30.433899	     515.10129	     19.713300
        597.00	     900.00000	     34.998413	     516.26140	     19.716600
        598.00	     864.00000	     25.991452	     517.41828	     19.716600
        599.00	     832.00000	     39.009970	     518.55859	     19.716600
        600.00	     840.00000	     36.854067	     519.71814	     19.716600
