Space=EmissionWavelength
Columns=EmissionWavelength,Intensity,IntensityStdError,RealTime,RealTemperature
Dark=76.8, 488.0
[Data]
        500.00	     186756.00	     463.20430	     2431.5568	     4.9900000
        501.00	     186124.00	     430.77398	     2433.0667	     4.9966000
        502.00	     186436.00	     401.39534	     2434.2198	     4.9966000
        503.00	     184536.00	     464.26812	     2435.3845	     4.9966000
        504.00	     181308.00	     542.30619	     2436.5371	     4.9966000
        505.00	     181332.00	     424.83984	     2437.7083	     4.9966000
        506.00	     179676.00	     452.29096	     2438.8641	     4.9966000
        507.00	     178676.00	     366.04553	     2439.9776	     4.9966000
        508.00	     177420.00	     391.23963	     2441.1600	     4.9966000
        509.00	     177784.00	     598.51074	     2442.3201	     4.9966000
        510.00	     175584.00	     589.86401	     2443.4718	     4.9966000
        511.00	     174484.00	     551.49252	     2444.6467	     4.9966000
        512.00	     173176.00	     338.58267	     2445.7953	     4.9966000
        513.00	     173160.00	     436.05504	     2446.9479	     4.9966000
        514.00	     171960.00	     270.16374	     2448.1128	     4.9966000
        515.00	     172136.00	     635.23784	     2449.2614	     4.9966000
        516.00	     171332.00	     237.63651	     2450.4295	     4.9966000
        517.00	     170508.00	     558.71122	     2451.5712	     4.9966000
        518.00	     170148.00	     436.69262	     2452.7134	     4.9966000
        519.00	     168860.00	     476.05975	     2453.8804	     4.9966000
        520.00	     167320.00	     516.45974	     2455.0384	     4.9900000
        521.00	     166440.00	     435.11633	     2456.1934	     4.9900000
        522.00	     165136.00	     570.16801	     2457.3544	     4.9900000
        523.00	     162708.00	     437.22153	     2458.5077	     4.9966000
        524.00	     161064.00	     387.75938	     2459.6576	     4.9966000
        525.00	     159276.00	     588.13302	     2460.8119	     4.9966000
        526.00	     157072.00	     424.03354	     2461.9757	     4.9966000
        527.00	     155928.00	     601.27864	     2463.1284	     4.9966000
        528.00	     152272.00	     525.40778	     2464.2813	     4.9966000
        529.00	     150648.00	     451.88789	     2465.4543	     4.9966000
        530.00	     147748.00	     474.87823	     2466.6194	     4.9900000
        531.00	     145468.00	     368.94805	     2467.7695	     4.9900000
        532.00	     142264.00	     412.59289	     2468.9244	     4.9900000
        533.00	     139552.00	     440.08080	     2470.0848	     4.9900000
        534.00	     136920.00	     554.18569	     2471.2414	     4.9900000
        535.00	     133828.00	     178.33302	     2472.3975	     4.9900000
        536.00	     129832.00	     428.24707	     2473.5449	     4.9900000
        537.00	     127132.00	     483.29425	     2474.6997	     4.9900000
        538.00	     124368.00	     349.33333	     2475.8501	     4.9966000
        539.00	     120436.00	     280.78936	     2477.0176	     4.9966000
        540.00	     116564.00	     433.85814	     2478.1694	     4.9966000
        541.00	     113896.00	     444.83005	     2479.2834	     4.9900000
        542.00	     109148.00	     261.24148	     2480.4632	     4.9900000
        543.00	     107036.00	     316.95496	     2481.6362	     4.9900000
        544.00	     103324.00	     497.71210	     2482.7853	     4.9900000
        545.00	     100588.00	     360.07160	     2483.9331	     4.9900000
        546.00	     96912.000	     387.76854	     2485.0894	     4.9900000
        547.00	     94332.000	     283.73697	     2486.2511	     4.9900000
        548.00	     91064.000	     264.10772	     2487.4224	     4.9900000
        549.00	     88360.000	     244.09834	     2488.6630	     4.9900000
        550.00	     84704.000	     258.25397	     2489.8179	     4.9900000
        551.00	     81832.000	     349.62837	     2490.9801	     4.9900000
        552.00	     79696.000	     278.22932	     2492.0835	     4.9900000
        553.00	     76644.000	     351.65893	     2493.2810	     4.9900000
        554.00	     74256.000	     309.44825	     2494.4318	     4.9900000
        555.00	     72792.000	     392.00907	     2495.5534	     4.9900000
        556.00	     70132.000	     248.39037	     2496.7283	     4.9900000
        557.00	     68356.000	     260.83285	     2497.7850	     4.9900000
        558.00	     65448.000	     283.23214	     2498.9505	     4.9900000
        559.00	     63712.000	     267.99668	     2500.1072	     4.9900000
        560.00	     62112.000	     266.73333	     2501.2592	     4.9900000
        561.00	     59776.000	     152.16365	     2502.4139	     4.9900000
        562.00	     58984.000	     260.31093	     2503.5670	     4.9900000
        563.00	     57076.000	     382.43431	     2504.7373	     4.9900000
        564.00	     55568.000	     170.35388	     2505.8831	     4.9900000
        565.00	     54256.000	     298.63095	     2507.0455	     4.9900000
        566.00	     52668.000	     293.84501	     2508.1871	     4.9900000
        567.00	     51520.000	     136.46978	     2509.3459	     4.9900000
        568.00	     50492.000	     233.71398	     2510.5031	     4.9900000
        569.00	     49188.000	     295.11278	     2511.6554	     4.9900000
        570.00	     48332.000	     226.52937	     2512.8171	     4.9900000
        571.00	     46980.000	     181.45584	     2513.9601	     4.9900000
        572.00	     45356.000	     226.62353	     2515.1203	     4.9900000
        573.00	     44420.000	     248.87659	     2516.2739	     4.9900000
        574.00	     43964.000	     110.28045	     2517.4323	     5.0000000
        575.00	     42948.000	     200.92674	     2518.5442	     5.0000000
        576.00	     41476.000	     213.53740	     2519.7319	     5.0000000
        577.00	     40564.000	     291.87821	     2520.9011	     4.9900000
        578.00	     39772.000	     231.42073	     2522.0541	     4.9900000
        579.00	     39008.000	     188.39203	     2523.2000	     4.9900000
        580.00	     38344.000	     205.24673	     2524.3589	     4.9900000
        581.00	     36780.000	     151.56077	     2525.5286	     4.9900000
        582.00	     36184.000	     155.24032	     2526.6655	     4.9900000
        583.00	     35372.000	     225.90067	     2527.8360	     4.9900000
        584.00	     34336.000	     113.79514	     2528.9849	     4.9900000
        585.00	     33628.000	     171.00487	     2530.1412	     4.9900000
        586.00	     33072.000	     152.02339	     2531.2978	     4.9900000
        587.00	     31992.000	     235.51362	     2532.4579	     4.9900000
        588.00	     31168.000	     212.43143	     2533.6165	     4.9900000
        589.00	     30632.000	     157.64940	     2534.7667	     4.9900000
        590.00	     29944.000	     212.81604	     2535.9315	     4.9900000
        591.00	     28888.000	     145.96194	     2537.0860	     4.9900000
        592.00	     28096.000	     165.69852	     2538.2375	     5.0000000
        593.00	     27876.000	     248.26151	     2539.3928	     5.0000000
        594.00	     27024.000	     164.57892	     2540.5524	     5.0000000
        595.00	     26392.000	     185.13659	     2541.7143	     4.9900000
        596.00	     25780.000	     109.95757	     2542.8269	     4.9900000
        597.00	     25484.000	     151.56077	     2544.0123	     4.9900000
        598.00	     24844.000	     196.77850	     2545.1698	     4.9900000
        599.00	     24316.000	     132.45712	     2546.3351	     4.9900000
        600.00	     24224.000	     179.65894	     2547.4770	     4.9900000
