Title=Primera curva de espectro Muestra sin CCCP
Comment=
Signature=ISS_Experiment_Ver_1_0
Timestamp=Wed Sep  3 12:13:35 2025
Product=Vinci 3
SoftwareVersion=RELEASE.3.2.4
BuildNumber=518
RealTimeStart=414.8570218

AcquisitionType=Photon Counting
AcquisitionFormat=L
AcquisitionSide=Right

Measurable=Intensity
MaxIterations=10

RightEmissionWavelengthBandwidth=8.0
ExcitationWavelengthBandwidth=8.0
Visualization=Y:Intensity,X:EmissionWavelength,PlotType:2D


EmissionWavelength=type:numeric,unit:nm,from:500.0,to:600.0,step:1.0
ExcitationWavelength=type:numeric,unit:nm,fixed:470.0

Space=EmissionWavelength
Columns=EmissionWavelength,Intensity,IntensityStdError,RealTime,RealTemperature
Dark=80.0, 497.6
[Data]
        500.00	     514086.40	     810.44734	     418.50733	     19.356600
        501.00	     491338.40	     682.28244	     419.96575	     19.356600
        502.00	     469870.40	     721.00670	     421.10871	     19.356600
        503.00	     450414.40	     842.32060	     422.27366	     19.350000
        504.00	     429178.40	     793.27059	     423.43053	     19.350000
        505.00	     415514.40	     486.69589	     424.58909	     19.350000
        506.00	     398030.40	     688.77476	     425.74844	     19.350000
        507.00	     389442.40	     886.74686	     426.90405	     19.350000
        508.00	     379878.40	     678.80156	     428.06300	     19.360000
        509.00	     369434.40	     478.18360	     429.22126	     19.360000
        510.00	     361554.40	     456.81214	     430.37417	     19.360000
        511.00	     357262.40	     924.04906	     431.52756	     19.360000
        512.00	     350818.40	     485.54025	     432.69245	     19.360000
        513.00	     349998.40	     806.95202	     433.85004	     19.363300
        514.00	     346042.40	     996.24629	     434.99033	     19.363300
        515.00	     342934.40	     429.85476	     436.15621	     19.363300
        516.00	     342538.40	     680.14247	     437.31313	     19.363300
        517.00	     340718.40	     551.75518	     438.46980	     19.363300
        518.00	     339102.40	     408.27006	     439.62442	     19.363300
        519.00	     338570.40	     708.62747	     440.78559	     19.366600
        520.00	     335682.40	     1171.2292	     441.94390	     19.366600
        521.00	     332306.40	     497.15457	     443.05569	     19.366600
        522.00	     330238.40	     591.14052	     444.26703	     19.366600
        523.00	     330182.40	     782.56558	     445.50992	     19.366600
        524.00	     326870.40	     676.64007	     446.66798	     19.370000
        525.00	     325122.40	     566.47840	     447.82807	     19.370000
        526.00	     317462.40	     783.11061	     448.97419	     19.370000
        527.00	     318430.40	     762.75058	     450.13824	     19.370000
        528.00	     311494.40	     700.29327	     451.28902	     19.370000
        529.00	     307014.40	     605.36270	     452.44958	     19.370000
        530.00	     300142.40	     771.35379	     453.59626	     19.370000
        531.00	     296346.40	     654.89473	     454.74894	     19.370000
        532.00	     291466.40	     550.05293	     455.91554	     19.370000
        533.00	     286126.40	     504.17634	     457.06224	     19.370000
        534.00	     278022.40	     556.33723	     458.19517	     19.373300
        535.00	     272030.40	     720.26662	     459.37559	     19.373300
        536.00	     263202.40	     623.11761	     460.55030	     19.373300
        537.00	     256082.40	     469.90306	     461.69607	     19.373300
        538.00	     248362.40	     280.07935	     462.86633	     19.373300
        539.00	     242122.40	     543.96895	     464.01936	     19.373300
        540.00	     232686.40	     515.50881	     465.16142	     19.386600
        541.00	     227814.40	     723.46819	     466.33708	     19.386600
        542.00	     218806.40	     705.63951	     467.49374	     19.386600
        543.00	     212986.40	     457.17782	     468.63529	     19.386600
        544.00	     205574.40	     547.69984	     469.80223	     19.386600
        545.00	     198138.40	     623.09479	     470.97089	     19.380000
        546.00	     192470.40	     368.86854	     472.12671	     19.380000
        547.00	     186410.40	     371.23458	     473.26869	     19.380000
        548.00	     180654.40	     497.34584	     474.43151	     19.380000
        549.00	     177726.40	     424.87959	     475.54870	     19.380000
        550.00	     170046.40	     394.99986	     476.73719	     19.380000
        551.00	     165358.40	     499.00167	     477.90660	     19.380000
        552.00	     160266.40	     525.93029	     479.06540	     19.380000
        553.00	     155654.40	     359.05060	     480.22550	     19.380000
        554.00	     151518.40	     421.68761	     481.38185	     19.380000
        555.00	     146862.40	     521.36573	     482.53310	     19.393300
        556.00	     143278.40	     504.35261	     483.68942	     19.393300
        557.00	     139722.40	     407.32188	     484.85608	     19.393300
        558.00	     136282.40	     404.51892	     486.11270	     19.393300
        559.00	     134026.40	     441.26888	     487.22067	     19.393300
        560.00	     130038.40	     349.18063	     488.41984	     19.396600
        561.00	     127534.40	     479.95555	     489.57478	     19.396600
        562.00	     125586.40	     457.10004	     490.73169	     19.396600
        563.00	     123094.40	     562.81199	     491.89227	     19.396600
        564.00	     121070.40	     308.38936	     493.04749	     19.390000
        565.00	     119138.40	     404.79130	     494.19884	     19.390000
        566.00	     117910.40	     529.74795	     495.34303	     19.390000
        567.00	     115562.40	     192.78082	     496.51046	     19.390000
        568.00	     113234.40	     370.99506	     497.66753	     19.390000
        569.00	     111402.40	     291.95129	     498.82973	     19.400000
        570.00	     110258.40	     361.50058	     499.97791	     19.400000
        571.00	     108602.40	     371.14837	     501.13832	     19.400000
        572.00	     106198.40	     389.15064	     502.24343	     19.400000
        573.00	     105546.40	     514.86179	     503.43814	     19.400000
        574.00	     103722.40	     419.91534	     504.60057	     19.400000
        575.00	     102698.40	     586.25592	     505.74264	     19.403300
        576.00	     100174.40	     413.10962	     506.91142	     19.403300
        577.00	     98518.400	     299.58193	     508.05427	     19.403300
        578.00	     97098.400	     199.95111	     509.21198	     19.403300
        579.00	     96014.400	     284.70960	     510.37926	     19.406600
        580.00	     94082.400	     244.34948	     511.52415	     19.406600
        581.00	     93434.400	     345.38481	     512.69578	     19.406600
        582.00	     91722.400	     191.29965	     513.83797	     19.406600
        583.00	     90006.400	     295.15796	     515.00685	     19.406600
        584.00	     88374.400	     281.19112	     516.14854	     19.406600
        585.00	     87178.400	     155.42915	     517.31337	     19.406600
        586.00	     86390.400	     474.32947	     518.46869	     19.406600
        587.00	     85034.400	     308.34613	     519.61914	     19.406600
        588.00	     83050.400	     317.49296	     520.74447	     19.410000
        589.00	     82990.400	     276.02254	     521.93393	     19.410000
        590.00	     81270.400	     213.06650	     523.06249	     19.410000
        591.00	     79682.400	     387.78001	     524.26276	     19.410000
        592.00	     78194.400	     195.41864	     525.42203	     19.410000
        593.00	     76878.400	     176.40358	     526.57917	     19.410000
        594.00	     76082.400	     280.20627	     527.73882	     19.413300
        595.00	     74778.400	     246.82517	     528.89358	     19.413300
        596.00	     73686.400	     199.12698	     530.04485	     19.413300
        597.00	     72706.400	     344.58090	     531.20469	     19.413300
        598.00	     71090.400	     191.46685	     532.31983	     19.413300
        599.00	     69890.400	     435.24910	     533.50869	     19.413300
        600.00	     68918.400	     285.35825	     534.66868	     19.413300
